heart_rate,mean_hr,mean_rr,median_rr,sdnn,rmssd,sdsd,nn20,nn50,pnn20,pnn50,cvnn,rr_variance,rr_range,lf_power,hf_power,total_power,lf_hf_ratio,lf_nu,hf_nu,peak_frequency,spectral_entropy,psd_mean,psd_std,ecg_wav_energy_L0,ecg_wav_energy_L1,ecg_wav_energy_L2,ecg_wav_energy_L3,ecg_wav_energy_L4,ppg_wav_energy_L0,ppg_wav_energy_L1,ppg_wav_energy_L2,ppg_wav_energy_L3,ppg_wav_energy_L4,ecg_app_entropy,ecg_svd_entropy,ecg_spectral_entropy,ecg_higuchi_fd,ecg_katz_fd,ecg_detrended_fluctuation,ecg_sampen,ecg_perm_entropy,ecg_hjorth_mobility,ecg_hjorth_complexity,ppg_sampen,ppg_perm_entropy,ppg_hjorth_mobility,ppg_hjorth_complexity,ecg_mean,ecg_std,ppg_mean,ppg_std,ppg_min,ppg_max,pulse_rate,pulse_interval_mean,pulse_interval_std,pulse_amplitude,pulse_amplitude_std,ppg_variance,ppg_rms,ppg_skewness,ppg_kurtosis,ppg_iqr,ppg_energy,ppg_dominant_freq,ppg_bandpower,ppg_spectral_entropy,ppg_app_entropy,ppg_svd_entropy,ppg_higuchi_fd,ppg_katz_fd,ppg_dfa,ecg_hjorth_activity,ppg_hjorth_activity,baevsky_index,ecg_sqi,ppg_sqi,subject,label,resp_rate_mean,resp_rate_std,resp_interval_cv,resp_interval_iqr,resp_amplitude_std,resp_amplitude_skew,resp_amplitude_kurtosis
107.191039,107.191039,615.5803571,632.1428571,166.6824497,165.9347768,165.9080619,81,68,0.852631579,0.715789474,0.270772853,27783.03904,610.0,0.003284028,0.007577145,0.010861173,0.433412228,0.302363981,0.697636009,0.0625,4.322899343,0.015895729,0.016973019,397.565484,11.55572261,3.905570974,1.341322418,0.603452049,35956399.95,145708.7209,33354.71539,16662.68079,11653.69661,0.225336822,0.556527744,0.398695359,1.177149673,2.522829516,1.07119773,0.116971999,0.765344533,0.118746787,9.492239742,0.076699601,0.422475995,0.054904971,19.91229667,-0.008014787,0.098997623,-0.187677833,29.19999485,-65.47438161,64.80225834,102.5343259,0.652527473,0.212505011,44.6089589,18.02103778,852.6396991,29.20059798,-0.107652412,-0.55207197,41.76957462,35812346.73,1.3671875,812.7200709,3.389480442,0.111051894,0.32454245,1.025941724,1.983436601,1.259390921,0.009800529,852.6396991,1.14e-05,1.616666667,1.533333333,2,1,20.845752891957524,2.3746264660390803,0.1247148037282235,0.43410714285714347,1.3710262139197473,0.07437003816917082,-1.0343640029344994
99.83474845,99.83474845,653.1868132,702.8571429,159.0025645,167.4189146,167.4188958,80,63,0.888888889,0.7,0.243425864,25281.81552,575.7142857,0.002027345,0.006425109,0.008452454,0.315534679,0.239852802,0.760147186,0.1875,4.206909171,0.013353417,0.016463693,396.7612373,9.171468314,2.798032445,0.780938234,0.28425333,25128138.13,85272.69637,22954.2703,12466.38744,9918.370467,0.171459497,0.476069932,0.378090996,1.148274946,2.615695439,1.079331938,0.08559485,0.769973673,0.095063235,10.12576069,0.051731745,0.407645739,0.053086776,23.38336462,2.52e-05,0.098773355,-0.430329578,24.40356271,-65.4622127,64.80225834,95.59425785,0.684926108,0.185924191,35.64635775,17.46753837,595.5338732,24.40735661,-0.129254946,-0.164989695,35.01197184,25020200.38,1.3671875,551.9668921,2.989621916,0.074121008,0.316762313,1.014049644,1.855792422,1.308766284,0.009756176,595.5338732,8.38e-06,1.533333333,1.466666667,2,1,20.845752891957524,2.3746264660390803,0.1247148037282235,0.43410714285714347,1.3710262139197473,0.07437003816917082,-1.0343640029344994
97.39000094,97.39000094,662.5555556,704.2857143,150.1230779,171.5329404,171.5219445,76,57,0.853932584,0.640449438,0.226581872,22536.93852,705.7142857,0.00118819,0.004861967,0.006050157,0.244384586,0.196389917,0.803610066,0.25,4.278386983,0.008971193,0.010044463,398.7153569,9.467129912,2.79249709,0.686088902,0.19642145,22507526.64,55867.15595,20907.22431,11244.32985,5802.274011,0.173862715,0.451892816,0.373417567,1.152648893,2.520099904,1.089745287,0.08757742,0.766679043,0.089193168,9.766483479,0.050826987,0.398444667,0.051051978,24.25390895,0.000967169,0.099003198,-1.073552416,23.15936114,-65.43246324,64.72439549,93.58850174,0.705272109,0.19011888,34.67604732,16.93522748,536.3560084,23.18423005,0.07396927,0.019508256,32.6685635,22575357.98,1.3671875,513.0123175,3.017066052,0.076127104,0.307466906,1.014578905,1.964490407,1.319866353,0.009801633,536.3560084,1.06e-05,1.516666667,1.416666667,2,1,20.845752891957524,2.3746264660390803,0.1247148037282235,0.43410714285714347,1.3710262139197473,0.07437003816917082,-1.0343640029344994
98.41815722,98.41815722,663.5955056,698.5714286,168.1852246,202.8600581,202.8596521,74,57,0.840909091,0.647727273,0.253445394,28286.26977,952.8571429,0.001800251,0.002492707,0.004292958,0.722207016,0.419349712,0.580650265,0.8125,4.563884657,0.012835526,0.010618713,408.964555,8.957497041,2.788281662,0.739113608,0.32127344,28560043.1,109552.6165,22512.66464,10500.41422,6153.015785,0.179709577,0.473228928,0.376062603,1.156141356,2.494234851,1.092429151,0.08742339,0.771465621,0.094233433,10.35954717,0.057901019,0.39761553,0.049153087,23.1135651,-0.005619581,0.100024399,-1.777798844,26.0785329,-65.38699552,64.7700151,95.24437862,0.731322751,0.25883811,39.6686299,16.98122332,680.089878,26.13905979,0.07171347,-0.297021698,36.15909616,28696518.76,1.3671875,666.7973009,3.028237669,0.091641954,0.298678266,1.021037496,2.059270887,1.302475808,0.01000488,680.089878,7.71e-06,1.5,1.366666667,2,1,20.845752891957524,2.3746264660390803,0.1247148037282235,0.43410714285714347,1.3710262139197473,0.07437003816917082,-1.0343640029344994
95.3646671,95.3646671,678.262987,730.0,149.2028057,154.0052489,154.0020975,75,45,0.862068966,0.517241379,0.219977809,22261.47722,548.5714286,0.001549429,0.001085134,0.002634564,1.427868393,0.58811606,0.411883902,0.4375,4.23365168,0.01058273,0.012392125,406.8016837,8.84467085,2.398629802,0.679974435,0.249230193,24413179.09,52968.9445,12456.76731,4276.983765,3812.516408,0.166993878,0.453361974,0.37373232,1.158187457,2.467639577,1.101652837,0.081001029,0.781805789,0.089091065,10.58402301,0.050373187,0.401803644,0.040490533,24.32351329,-0.009040736,0.099433337,-1.438149963,24.08800152,-65.45340129,64.7700151,93.38217934,0.743660714,0.265033964,34.33863874,18.0660605,580.2318174,24.13089498,-0.072515258,-0.053192134,32.01039608,24456603.89,1.3671875,559.0759322,2.921854338,0.08480683,0.256607205,1.018312683,1.963729458,1.31466762,0.009886989,580.2318174,1.3e-05,1.483333333,1.35,2,1,20.845752891957524,2.3746264660390803,0.1247148037282235,0.43410714285714347,1.3710262139197473,0.07437003816917082,-1.0343640029344994
87.79135926,87.79135926,720.4703833,751.4285714,123.5222365,128.6487128,128.6479572,65,41,0.802469136,0.50617284,0.171446654,15257.7429,550.0,0.000957429,0.005732079,0.006689509,0.167030027,0.143124018,0.856875967,0.3125,4.115151831,0.007041174,0.009221793,407.5455939,6.850452053,1.908346111,0.437364709,0.067307526,12286711.27,8702.108282,3521.849593,1378.430927,1398.295248,0.145712855,0.383156962,0.361519905,1.145246736,2.453600972,1.116940391,0.068447856,0.786894939,0.073571139,8.945724571,0.039027048,0.3913305,0.029282042,39.01611703,-0.008077426,0.099282088,-1.028452307,17.07624116,-65.45340129,64.61570916,85.6635405,0.738732143,0.153679861,22.78268465,10.66538977,291.5980121,17.10718347,-0.189969555,-0.172923355,26.78354643,12291540.5,1.3671875,271.675682,2.432611938,0.049987181,0.200825062,1.002953379,1.823328733,1.412361823,0.009856933,291.5980121,1.51e-05,1.383333333,1.35,2,1,20.845752891957524,2.3746264660390803,0.1247148037282235,0.43410714285714347,1.3710262139197473,0.07437003816917082,-1.0343640029344994
98.04796137,98.04796137,664.3809524,710.7142857,158.786755,170.0138252,169.9744312,76,64,0.853932584,0.719101124,0.23899956,25213.23356,635.7142857,0.002944026,0.00299294,0.005936966,0.983656837,0.495880547,0.504119436,0.125,4.030821506,0.010185057,0.01470311,403.0332631,8.471043538,2.388393728,0.608105595,0.235423173,20553716.11,46997.95478,15987.02129,6959.479834,3494.027099,0.157862048,0.445923355,0.373741211,1.147576211,2.405065294,1.113595181,0.071450509,0.780844394,0.087188284,10.49681081,0.045288022,0.395078047,0.04257359,26.29295406,-0.007678763,0.098947336,-0.900250448,22.13937742,-65.46653487,64.81495777,91.62821602,0.720574913,0.218548638,31.89382919,17.15424064,490.1520327,22.15767324,-0.059002953,0.019072317,31.68741071,20620424.31,1.3671875,477.7203498,2.99054651,0.070570371,0.268233831,1.011744657,1.957152331,1.330686746,0.009790575,490.1520327,7.35e-06,1.516666667,1.383333333,2,1,20.845752891957524,2.3746264660390803,0.1247148037282235,0.43410714285714347,1.3710262139197473,0.07437003816917082,-1.0343640029344994
102.1592663,102.1592663,650.2982732,688.5714286,178.2492562,202.8304811,202.8092232,81,66,0.9,0.733333333,0.274103844,31772.79733,695.7142857,0.002123241,0.00273598,0.004859221,0.776044119,0.436950924,0.563049055,1.0625,4.408325054,0.015417556,0.015611409,384.2699574,9.063056112,2.42187045,0.735093827,0.333792989,26060369.38,77112.90519,21882.79881,8817.903415,5809.978651,0.160552775,0.473158257,0.37961781,1.150159825,2.512496313,1.114016132,0.076627445,0.780203877,0.093958759,10.62818364,0.053287251,0.402400684,0.045507368,24.15800949,-0.004876164,0.097070771,-0.211160156,24.93617025,-65.47258738,64.81495777,97.49016047,0.688272425,0.209396733,36.36023059,18.60872707,621.8125865,24.93706428,-0.123498432,-0.228916133,35.26508924,26118001.36,1.3671875,604.8264872,3.148592786,0.082097964,0.282149331,1.01781729,1.986005798,1.308730274,0.009422735,621.8125865,8.22e-06,1.533333333,1.45,2,1,20.845752891957524,2.3746264660390803,0.1247148037282235,0.43410714285714347,1.3710262139197473,0.07437003816917082,-1.0343640029344994
97.21259952,97.21259952,680.1642036,737.1428571,179.4325281,218.2485727,218.2483445,76,62,0.88372093,0.720930233,0.263807662,32196.03215,997.1428571,0.00014022,0.001715236,0.001855456,0.081749756,0.075571782,0.924428164,0.5,3.668984828,0.019732122,0.034484134,388.6224,8.562337779,2.28863714,0.759959577,0.27435762,22225685.33,67272.77984,18139.85624,5784.967132,6313.452273,0.152222836,0.462040384,0.37922703,1.143705269,2.222701387,1.116329457,0.071746009,0.78086111,0.090901062,10.87358189,0.04826498,0.398187291,0.047033263,23.13922096,-0.00599832,0.097088047,-0.340993572,23.04671162,-65.47317641,64.81170829,92.14942467,0.734444444,0.257802407,32.4588321,18.82959053,531.1509163,23.04923411,-0.182168757,0.213078185,29.85622849,22313222.1,1.3671875,489.007024,3.144833007,0.084618946,0.289129243,1.017665814,2.043853998,1.293828972,0.009426089,531.1509163,6.36e-06,1.466666667,1.366666667,2,1,20.845752891957524,2.3746264660390803,0.1247148037282235,0.43410714285714347,1.3710262139197473,0.07437003816917082,-1.0343640029344994
88.64553558,88.64553558,723.7108014,755.0,156.0892554,197.7860581,197.7576693,71,55,0.87654321,0.679012346,0.215679046,24363.85564,995.7142857,0.000300501,0.00240772,0.002708221,0.124807263,0.110958799,0.889041164,0.5625,4.488586722,0.006998773,0.006397098,389.6826277,7.275121975,2.223808131,0.66915634,0.182473906,17209935.53,39883.69024,12637.51369,4108.83643,4292.362078,0.148806277,0.441724806,0.374528808,1.142137997,2.410021461,1.122545263,0.06790183,0.78076212,0.08601679,10.78164757,0.040335738,0.394858438,0.045196216,23.94342682,-0.009439573,0.097104352,-0.438488681,20.21820726,-65.47317641,64.81170829,88.01802563,0.74915009,0.223601428,26.72041253,17.44507121,408.775905,20.22296164,-0.240769411,0.866355445,25.05503434,17176663.45,1.3671875,361.2639275,3.015541373,0.078190557,0.280511111,1.013132052,1.825769478,1.315500887,0.009429255,408.775905,9.32e-06,1.383333333,1.333333333,2,1,20.845752891957524,2.3746264660390803,0.1247148037282235,0.43410714285714347,1.3710262139197473,0.07437003816917082,-1.0343640029344994
87.51737464,87.51737464,733.0687831,768.5714286,143.6796623,168.1021768,168.0737878,71,52,0.8875,0.65,0.195997518,20643.84536,705.7142857,0.000575411,0.005722014,0.006297424,0.100560909,0.091372415,0.908627569,0.375,4.182035235,0.010088631,0.012154732,381.1304952,8.033869961,1.778023845,0.426305034,0.052877549,10130197.51,11439.71178,3685.327615,1776.399493,1618.372674,0.137711864,0.383670886,0.366447165,1.14781688,2.256197482,1.121925889,0.067458979,0.789438417,0.073895939,8.915409528,0.035726418,0.384184197,0.034447465,32.40332032,-0.010507426,0.095791236,-0.064755007,15.49412805,-65.31353171,64.65719524,85.98228773,0.745045208,0.167994359,19.9349332,10.24605874,240.068004,15.49426337,-0.36062661,0.736960026,22.7646299,10083032.28,1.3671875,222.382426,2.516369384,0.05837223,0.228175152,1.00581231,1.722745198,1.364636561,0.009175961,240.068004,1.12e-05,1.366666667,1.333333333,2,1,20.845752891957524,2.3746264660390803,0.1247148037282235,0.43410714285714347,1.3710262139197473,0.07437003816917082,-1.0343640029344994
86.96747002,86.96747002,736.3315697,752.8571429,165.3844766,197.0531628,197.0530042,66,50,0.825,0.625,0.224605984,27352.02511,1252.857143,0.001742921,0.001933461,0.003676381,0.901451279,0.47408592,0.525914053,0.125,4.019546845,0.005426849,0.007408933,381.266058,7.752010397,2.134027693,0.553356154,0.192678207,15388023.01,42379.72331,9908.771136,5963.426784,2887.241686,0.146501152,0.437302311,0.375857218,1.146926591,2.47477871,1.111378797,0.071506968,0.786645386,0.085299154,10.63036715,0.037166253,0.386520016,0.044257067,25.27772326,-0.012286665,0.095740627,0.736561324,19.15238298,-65.4655693,64.81280591,86.85328205,0.737428571,0.181508053,26.86813244,16.76668026,366.813774,19.16654107,-0.227310472,1.203419725,24.05489928,15428964.46,1.3671875,338.5113902,3.019073132,0.077026607,0.276248616,1.0124677,1.871875163,1.30730055,0.009166268,366.813774,1.74e-05,1.366666667,1.35,2,1,20.845752891957524,2.3746264660390803,0.1247148037282235,0.43410714285714347,1.3710262139197473,0.07437003816917082,-1.0343640029344994
89.92809231,89.92809231,724.1637631,746.4285714,179.1755914,217.2872095,217.2863327,65,55,0.802469136,0.679012346,0.247424133,32103.89254,1255.714286,0.002209575,0.002446249,0.004655824,0.903250458,0.474583077,0.525416902,0.0625,4.812254465,0.018176354,0.010160749,368.7405424,8.701836986,2.283645604,0.579506609,0.204024033,17267565.37,29374.90913,18104.01596,6994.716368,4594.235343,0.154876216,0.448286743,0.378440165,1.147476226,2.477406531,1.106848355,0.07369262,0.786792732,0.087981702,10.4693078,0.03700637,0.382793957,0.047726977,24.40891895,-0.009623432,0.094686317,0.631617651,20.27359933,-65.4655693,64.81280591,88.5400591,0.718657487,0.148960392,27.97691415,17.04963763,411.0188299,20.28343587,-0.274410175,0.814678065,26.37782694,17279546.37,1.3671875,374.9900166,3.006372138,0.077089442,0.292649335,1.013158317,1.87260285,1.301212304,0.008965499,411.0188299,9.35e-06,1.383333333,1.4,2,1,20.845752891957524,2.3746264660390803,0.1247148037282235,0.43410714285714347,1.3710262139197473,0.07437003816917082,-1.0343640029344994
90.19526905,90.19526905,715.5765921,744.2857143,147.039737,172.9096876,172.8616237,73,60,0.890243902,0.731707317,0.205484275,21620.68426,635.7142857,0.000609089,0.002134174,0.002743264,0.285398099,0.222030902,0.777969062,0.5625,4.161755755,0.012498255,0.016692805,377.7849136,7.457222781,1.935285426,0.436692703,0.056163898,12751872.78,20024.99981,13835.5705,4112.645887,4041.886847,0.146101522,0.387291465,0.370495739,1.143181106,2.194015003,1.117104339,0.068533995,0.787292453,0.075294584,8.323205544,0.034488825,0.366158798,0.044518045,28.62136383,-0.008193626,0.095330151,-0.145434654,17.45203609,-65.42839822,63.71866089,80.10590374,0.763461538,0.088970953,24.97455997,8.76280151,304.5735638,17.45264207,-0.349975656,-0.533004571,27.36069946,12792978.03,1.3671875,287.4040447,2.486174671,0.0552886,0.27726449,1.004040811,1.875989848,1.330376639,0.009087838,304.5735638,1.17e-05,1.4,1.316666667,2,1,20.845752891957524,2.3746264660390803,0.1247148037282235,0.43410714285714347,1.3710262139197473,0.07437003816917082,-1.0343640029344994
94.30411067,94.30411067,688.4219269,734.2857143,152.4985749,173.3356804,173.3356144,76,62,0.894117647,0.729411765,0.221519055,23255.81533,591.4285714,0.001080083,0.002206671,0.003286754,0.489462579,0.328616902,0.671383067,1.1875,4.39866133,0.006288885,0.006322105,385.4815464,8.155699513,2.129279966,0.503928185,0.100217067,18707698.08,19745.22392,8339.66823,5321.578958,2510.728641,0.1459295,0.410688416,0.371182741,1.141840807,2.393863449,1.122339387,0.070702192,0.78141872,0.07931575,9.837933214,0.045415695,0.379295003,0.037569748,30.46997883,-0.009903827,0.096608213,-0.027800702,21.09128001,-65.43334004,64.81250471,87.81459253,0.726857143,0.168683135,31.97530464,10.97915561,444.8420924,21.09129833,-0.146063878,-0.411012365,30.98250287,18683400.34,1.3671875,405.2243042,2.763784735,0.065612609,0.244045508,1.006896386,1.858734304,1.339952394,0.009333147,444.8420924,8.12e-06,1.45,1.35,2,1,20.845752891957524,2.3746264660390803,0.1247148037282235,0.43410714285714347,1.3710262139197473,0.07437003816917082,-1.0343640029344994
98.97440578,98.97440578,669.7271268,711.4285714,192.8359035,236.3877137,236.3725375,80,65,0.909090909,0.738636364,0.287932048,37185.68569,1338.571429,0.001679541,0.000580693,0.002260234,2.892305448,0.743082856,0.2569171,0.9375,3.974561737,0.021466723,0.032124867,384.422416,8.264203853,2.520756612,0.617553443,0.232471251,24363736.56,44454.55971,13798.43089,7633.388729,4402.689124,0.152342605,0.451425448,0.374881897,1.148162539,2.450278025,1.117567384,0.074097705,0.779996159,0.088477422,10.7334319,0.048609552,0.394459174,0.040645943,28.94918708,-0.008958274,0.096612988,0.699282448,24.10307322,-65.43334004,64.81250471,95.33844699,0.700957983,0.227349717,33.7917596,15.73658718,580.9581389,24.11321494,-0.085819635,-0.21064388,33.30933131,24420779.66,1.3671875,528.7605497,2.871105296,0.067275189,0.259148023,1.008955453,1.995521936,1.339932169,0.009334069,580.9581389,4.7e-06,1.5,1.433333333,2,1,20.845752891957524,2.3746264660390803,0.1247148037282235,0.43410714285714347,1.3710262139197473,0.07437003816917082,-1.0343640029344994
94.29046289,94.29046289,701.4117647,750.0,195.0888607,230.8871849,230.8595613,77,60,0.916666667,0.714285714,0.278137423,38059.66358,1335.714286,0.001531217,0.00257681,0.004108027,0.594229569,0.372737767,0.627262209,0.5625,4.419181039,0.012204263,0.012670148,386.0560501,7.829479937,2.391342873,0.582266102,0.207107421,22083204.6,30994.71595,17888.38305,7274.753768,5904.990324,0.149106005,0.44171153,0.372544932,1.148950986,2.523244187,1.119005858,0.071201686,0.783324616,0.086010326,10.65943208,0.039167451,0.390902367,0.04373223,28.81752891,-0.007861771,0.096911684,0.755648254,22.93358455,-65.47223566,64.72603852,90.48520299,0.726585366,0.204743615,29.6377803,15.63167181,525.9493005,22.94603026,-0.132352038,0.010390385,31.27142441,22113852.8,1.3671875,480.1988599,2.722278787,0.057369434,0.27357694,1.006787258,1.885113274,1.372018589,0.009391875,525.9493005,6.15e-06,1.433333333,1.383333333,2,1,20.845752891957524,2.3746264660390803,0.1247148037282235,0.43410714285714347,1.3710262139197473,0.07437003816917082,-1.0343640029344994
92.0390189,92.0390189,713.9070568,782.8571429,167.5371703,174.6375754,174.6374702,65,52,0.792682927,0.634146341,0.234676445,28068.70343,625.7142857,0.001618542,0.004075875,0.005694417,0.397102964,0.284233141,0.715766841,0.3125,4.304178486,0.009831738,0.010646289,386.7070641,6.991840632,1.885968929,0.431436297,0.070797326,14535553.18,14572.97128,10660.30207,3684.052353,3192.890566,0.141590679,0.396591751,0.368821641,1.149398089,2.192740847,1.124449433,0.068484008,0.79124012,0.076295679,9.459638156,0.036533728,0.382416467,0.039512373,32.11146386,-0.009427104,0.096231006,-0.161944893,18.59603715,-65.47223566,64.72603852,86.1907697,0.747,0.184549313,23.30268103,10.40760019,345.8125977,18.59674229,-0.270197775,0.040206447,27.4754008,14525230.6,1.3671875,317.6635024,2.536831947,0.051852477,0.253216103,1.003243277,1.766363867,1.403801044,0.009260407,345.8125977,1.16e-05,1.4,1.35,2,1,20.845752891957524,2.3746264660390803,0.1247148037282235,0.43410714285714347,1.3710262139197473,0.07437003816917082,-1.0343640029344994
97.20903339,97.20903339,691.3613445,762.8571429,182.7799083,197.4213009,197.4052551,66,54,0.785714286,0.642857143,0.264376812,33408.49488,590.0,0.000658165,0.005345753,0.006003918,0.12311918,0.109622542,0.890377441,0.375,4.137680086,0.014315442,0.017752012,368.7202979,8.006336739,1.919239598,0.475214637,0.079533261,10331480.56,11618.40043,4254.771001,1759.922385,1715.243896,0.140812607,0.403779638,0.367375192,1.153988957,2.503579221,1.129053034,0.07092209,0.792582332,0.077665852,9.977301304,0.038545126,0.383788114,0.034964401,33.52912415,-0.011529648,0.094315835,-0.155409874,15.68479923,-65.4712233,64.72843709,86.96974345,0.735625,0.165155206,20.43947342,10.00047613,246.0129268,15.68556913,-0.294409606,0.716063677,22.23559427,10333557.32,1.3671875,229.8884278,2.546978653,0.054496502,0.230902798,1.004701537,1.76112479,1.385760682,0.008895477,246.0129268,1.09e-05,1.433333333,1.35,2,1,20.845752891957524,2.3746264660390803,0.1247148037282235,0.43410714285714347,1.3710262139197473,0.07437003816917082,-1.0343640029344994
97.39965554,97.39965554,689.0863787,757.8571429,181.8393227,195.1643504,195.0378683,74,57,0.870588235,0.670588235,0.263884657,33065.53929,615.7142857,0.000564098,0.004892179,0.005456277,0.11530614,0.103385193,0.896614789,0.875,4.231995563,0.019387781,0.021659848,377.9245925,7.799920286,2.279916575,0.524006135,0.121062934,12166100.85,13861.25844,4727.823571,2082.181447,1841.582847,0.145349664,0.414811151,0.368828979,1.14870747,2.390439658,1.127330645,0.071763334,0.784755853,0.079952687,10.29041344,0.037404293,0.38186075,0.034225254,34.26758398,-0.010876535,0.095545371,-0.330824016,17.02956578,-65.4712233,64.72843709,81.08731988,0.769628942,0.139033886,21.814866,10.72551757,290.0061106,17.03277884,-0.344902495,0.359556377,24.20874499,12184853.31,1.3671875,266.6804543,2.494975042,0.053672133,0.227088557,1.005025382,1.82387229,1.388663335,0.009128918,290.0061106,2.49e-05,1.45,1.3,2,1,20.845752891957524,2.3746264660390803,0.1247148037282235,0.43410714285714347,1.3710262139197473,0.07437003816917082,-1.0343640029344994
94.9273532,94.9273532,701.7478992,768.5714286,179.6440894,166.5821457,166.5731134,74,54,0.880952381,0.642857143,0.255995194,32271.99887,644.2857143,0.005092111,0.006644142,0.011736253,0.766406006,0.433878737,0.566121255,0.125,3.515215123,0.014705656,0.028158217,376.3511093,6.388629845,2.20110762,0.433322055,0.08586316,18138999.84,9772.413737,4727.807908,2412.543887,1640.070369,0.145450008,0.392527766,0.36683828,1.147294486,2.468959422,1.125585213,0.071567964,0.785046186,0.075865754,8.881467893,0.034593332,0.370563568,0.028299664,42.10912304,-0.007788522,0.095438778,-1.149789216,20.74811215,-65.31905158,64.71245493,76.93659929,0.795066667,0.108177303,25.21978073,6.454698172,430.4841577,20.77994641,-0.447127236,-0.82316616,34.03310356,18135859.26,1.3671875,406.2108518,2.140434045,0.045668339,0.195526666,1.00195008,1.83105375,1.407973492,0.00910856,430.4841577,8.92e-06,1.433333333,1.266666667,2,1,20.845752891957524,2.3746264660390803,0.1247148037282235,0.43410714285714347,1.3710262139197473,0.07437003816917082,-1.0343640029344994
97.46961153,97.46961153,684.9169435,751.4285714,178.4182206,182.765405,182.7653981,75,58,0.882352941,0.682352941,0.260496141,31833.06145,644.2857143,0.002835417,0.005152122,0.007987539,0.550339633,0.354980045,0.645019942,0.1875,4.215154957,0.016564872,0.018958244,375.1769537,6.719357489,2.150841324,0.437843702,0.070546509,22960659.17,18198.50697,6686.069669,3847.884288,3310.957092,0.146507067,0.389940865,0.36729119,1.149199116,2.386784005,1.123784584,0.07319622,0.782676172,0.075664186,8.44553324,0.035891388,0.364267959,0.03212639,37.97198845,-0.005807044,0.09548641,-0.896745096,23.3701251,-65.36351992,64.74942364,81.11281262,0.763333333,0.122647975,29.91806094,8.994635314,546.162747,23.38732346,-0.352200067,-0.858512185,38.97409618,22972609.75,1.3671875,537.6882021,2.298681616,0.049062026,0.215975565,1.002224826,1.882877362,1.381128776,0.009117654,546.162747,9.14e-06,1.45,1.316666667,2,1,20.845752891957524,2.3746264660390803,0.1247148037282235,0.43410714285714347,1.3710262139197473,0.07437003816917082,-1.0343640029344994
96.72122478,96.72122478,682.2167488,742.8571429,167.1402269,192.9917089,192.9914773,79,65,0.918604651,0.755813953,0.244995783,27935.85544,637.1428571,0.001031977,0.006334318,0.007366296,0.162918432,0.140094462,0.859905525,0.25,4.227992017,0.011889917,0.014243153,379.7073283,7.359385964,2.430375416,0.526894532,0.119733626,18934731.15,18379.41457,6755.087273,3641.462824,3223.207913,0.155662322,0.412244901,0.371534776,1.154341952,2.271124923,1.114665218,0.077095682,0.776382014,0.080060487,9.224349167,0.041548423,0.366153587,0.035249951,33.73365245,-0.004428998,0.096009356,-0.612714699,21.21679375,-65.36351992,64.80225775,83.39883279,0.754484629,0.143851464,30.69765075,11.09789668,450.152337,21.22563913,-0.154212919,-0.32289137,32.92492707,18922165.77,1.3671875,432.4575045,2.541125436,0.05724049,0.232275401,1.004252709,1.865738401,1.347863949,0.009217796,450.152337,1.55e-05,1.466666667,1.333333333,2,1,20.845752891957524,2.3746264660390803,0.1247148037282235,0.43410714285714347,1.3710262139197473,0.07437003816917082,-1.0343640029344994
95.53277673,95.53277673,689.4186047,722.1428571,186.3646137,242.8235765,242.8227803,78,59,0.917647059,0.694117647,0.270321416,34731.76924,1235.714286,0.000943104,0.004601299,0.005544403,0.204964674,0.170100152,0.82989983,0.6875,4.497701587,0.023826484,0.022662137,378.8370299,7.740754505,2.711019229,0.653163111,0.20238762,19735536.12,19287.60201,8329.347304,2535.301928,2794.769793,0.169108926,0.446332959,0.373384756,1.165425397,2.501790592,1.107967563,0.083418507,0.774535414,0.087614951,10.1295636,0.044710591,0.381503326,0.035046687,29.13721976,-0.006987103,0.096114388,-0.704256878,21.66648771,-65.47153722,64.80908869,89.16337652,0.723240418,0.168314493,32.15653871,16.43700135,469.4366897,21.67793042,0.02057192,0.49505997,28.90302175,19737172.03,1.3671875,450.0051966,2.825932821,0.071673601,0.230406868,1.010281895,1.895492748,1.338007541,0.009237976,469.4366897,8.1e-06,1.45,1.383333333,2,1,20.845752891957524,2.3746264660390803,0.1247148037282235,0.43410714285714347,1.3710262139197473,0.07437003816917082,-1.0343640029344994
97.07661887,97.07661887,677.4750831,737.8571429,166.775539,190.7333418,190.7153208,72,59,0.847058824,0.694117647,0.246172211,27814.08042,627.1428571,0.001385271,0.002775552,0.004160823,0.499097455,0.332931961,0.667068015,0.0625,3.726091424,0.006010775,0.009879971,381.1962541,7.105594908,2.426905188,0.562427718,0.151357244,20568646.49,22459.34138,7566.1962,2131.245022,2581.530686,0.162329933,0.428962147,0.371400423,1.159467554,2.404420182,1.113808057,0.079824839,0.780595564,0.083483407,9.94329641,0.043864484,0.394264697,0.032526943,31.54299694,-0.007121896,0.096234573,-0.824603145,22.0611661,-65.47153722,64.80908869,91.38697654,0.712478485,0.178269153,30.68816623,16.68741886,486.6950496,22.07657174,-0.064787536,0.430382203,28.66769959,20469750.84,1.3671875,456.245149,2.756896195,0.066783702,0.217504444,1.009497778,1.805742978,1.373554307,0.009261093,486.6950496,1.47e-05,1.45,1.4,2,1,20.845752891957524,2.3746264660390803,0.1247148037282235,0.43410714285714347,1.3710262139197473,0.07437003816917082,-1.0343640029344994
99.27262659,99.27262659,670.2922078,724.2857143,172.5438772,202.1548819,202.1548653,75,67,0.862068966,0.770114943,0.257415908,29771.38957,684.2857143,0.000804032,0.004270688,0.00507472,0.188267518,0.158438664,0.841561316,1.0,4.467847019,0.018428753,0.018073568,376.0384307,7.391136178,2.004230819,0.402974735,0.043321843,12427212.46,5203.727205,3020.760351,1226.019479,1142.124591,0.151757943,0.382355618,0.371193236,1.143757702,2.405367335,1.116014721,0.074055037,0.787082624,0.07472048,7.690537616,0.039893729,0.383778055,0.027273172,41.75924228,-0.003575667,0.095762904,-1.281335635,17.15754208,-65.23235443,62.59108693,87.86322895,0.736232143,0.179604901,23.15694264,7.950693317,294.3812501,17.20532101,-0.210793966,0.03951679,26.31090197,12432968.99,1.3671875,260.5795942,2.3447175,0.049384204,0.189758483,1.002203706,1.809556206,1.42482159,0.009170534,294.3812501,1.02e-05,1.483333333,1.35,2,1,20.845752891957524,2.3746264660390803,0.1247148037282235,0.43410714285714347,1.3710262139197473,0.07437003816917082,-1.0343640029344994
99.60665101,99.60665101,659.8571429,702.8571429,172.326491,180.5299976,180.5264004,75,67,0.842696629,0.752808989,0.261157271,29696.4195,1072.857143,0.001073893,0.008633428,0.00970732,0.124387766,0.110627107,0.889372882,0.3125,4.184342111,0.013738676,0.015875312,398.7126787,9.471998134,2.860103777,0.73124053,0.279501561,18841521.39,31721.20519,9085.36731,2725.633342,3042.05669,0.167155386,0.463206188,0.378520026,1.151405279,2.572186897,1.099968954,0.083064318,0.778795234,0.09153775,10.37231269,0.04597417,0.390693179,0.038843436,26.99734559,-0.003805034,0.098965803,-0.995696062,21.15436202,-65.47368913,64.80398137,90.34054675,0.707993197,0.164857791,29.2561551,16.44911418,447.5070324,21.17778183,-0.056906446,0.355825031,29.27513977,18836934.61,1.3671875,400.0909001,2.903280547,0.075709026,0.249548453,1.014803562,1.883308103,1.329398478,0.00979423,447.5070324,8.84e-06,1.516666667,1.416666667,2,1,20.845752891957524,2.3746264660390803,0.1247148037282235,0.43410714285714347,1.3710262139197473,0.07437003816917082,-1.0343640029344994
99.51099824,99.51099824,653.5792779,692.8571429,161.0960404,170.6685533,170.6677001,68,54,0.755555556,0.6,0.246482785,25951.93423,1072.857143,0.002826715,0.00184884,0.004675555,1.528913007,0.604573191,0.395426787,0.625,4.259467592,0.011940923,0.013724233,424.5484472,7.374464678,3.322010127,0.810227476,0.297685793,28193258.0,42137.34114,11361.74654,3776.831214,3774.126631,0.174863124,0.463590119,0.370117764,1.171302312,2.653095992,1.104329409,0.092001819,0.769555896,0.091613285,10.38830089,0.047835645,0.395309477,0.03530472,30.28606312,-0.003599157,0.101858996,-1.179797254,25.89486395,-65.47368913,64.80398137,88.83379855,0.707993197,0.149816395,33.90648617,14.55921582,670.543979,25.92172642,-0.263102772,-0.652584615,40.5799044,28221307.83,1.3671875,606.5693338,2.636705282,0.069382364,0.232085441,1.012431269,2.060013443,1.343882388,0.010375255,670.543979,1.12e-05,1.533333333,1.416666667,2,1,20.845752891957524,2.3746264660390803,0.1247148037282235,0.43410714285714347,1.3710262139197473,0.07437003816917082,-1.0343640029344994
105.2978565,105.2978565,623.6240602,671.4285714,155.1843518,169.3119072,169.2358008,75,56,0.79787234,0.595744681,0.248842791,24082.18305,602.8571429,0.000509064,0.003385964,0.003895028,0.150345473,0.130695932,0.869304043,0.25,4.438408861,0.007362454,0.006757337,416.734723,8.473783325,3.615321959,0.977261019,0.443244399,39946592.07,121561.2735,36023.43419,15050.9237,13468.58887,0.187149505,0.499329261,0.38212052,1.180178727,2.502033222,1.090912993,0.096674822,0.766959106,0.101386912,10.12038019,0.05481627,0.39028381,0.049131752,23.87821366,-0.003818417,0.101092666,-0.550324464,30.89360664,-65.46218857,64.79696167,94.59411481,0.666565008,0.126395484,40.24205032,13.43016563,954.4149312,30.89850786,-0.267577024,-1.000822186,50.94073177,40098147.1,1.3671875,857.5480346,2.681734952,0.084503111,0.299168077,1.020798288,2.161788946,1.286366132,0.010219727,954.4149312,1.01e-05,1.6,1.5,2,1,20.845752891957524,2.3746264660390803,0.1247148037282235,0.43410714285714347,1.3710262139197473,0.07437003816917082,-1.0343640029344994
123.0733973,123.0733973,529.0816327,520.0,150.9668617,170.6722376,170.6082848,104,84,0.936936937,0.756756757,0.285337559,22790.99334,720.0,0.001561773,0.00228934,0.003851112,0.682193341,0.405538011,0.594461963,0.0625,4.730086887,0.009821593,0.006743854,283.5885572,12.79089895,6.233334359,2.012922084,0.646833581,38935470.9,83951.07096,22818.66607,12310.5518,11107.33873,0.382665415,0.646273252,0.441523455,1.30454747,2.99192289,1.032307864,0.257366461,0.7968582,0.153322138,7.202341319,0.074605509,0.426059288,0.047850731,22.19303605,-0.018353934,0.083210389,-0.076013329,30.49502394,-65.47255934,64.81257171,106.521181,0.683885017,0.331143416,51.91691373,18.03103589,929.9464852,30.49511868,0.065000268,-0.544701356,40.72946187,39057995.06,1.3671875,830.9080613,3.440058479,0.096985838,0.292641312,1.019880495,2.239939336,1.30149915,0.006923969,929.9464852,8.19e-06,1.883333333,1.383333333,2,2,20.845752891957524,2.3746264660390803,0.1247148037282235,0.43410714285714347,1.3710262139197473,0.07437003816917082,-1.0343640029344994
115.5397586,115.5397586,579.5006935,587.1428571,182.5841744,160.8053586,160.7807153,89,67,0.87254902,0.656862745,0.315071537,33336.98073,717.1428571,0.00537956,0.00506913,0.01044869,1.061239428,0.514855001,0.485144989,0.125,4.011557059,0.014330137,0.021718341,234.5022103,10.97289381,4.980669033,1.644967102,0.528727997,34538310.63,166527.4833,36644.83961,19041.36143,11893.71617,0.342075507,0.649341081,0.449380489,1.279901043,2.87026479,1.029511369,0.222372715,0.78352453,0.155253059,7.196166194,0.071997031,0.424757606,0.058256041,19.70514106,-0.018614783,0.075270753,-1.818095546,28.71219983,-65.47255934,64.81534903,102.4606301,0.726567944,0.405022282,46.419805,21.28939083,824.3904191,28.76970439,0.092034301,-0.318375191,36.70238693,34763227.4,1.3671875,754.6978592,3.517093649,0.103444848,0.338929303,1.023713666,2.206819528,1.271974384,0.005665686,824.3904191,7.13e-06,1.733333333,1.383333333,2,2,20.845752891957524,2.3746264660390803,0.1247148037282235,0.43410714285714347,1.3710262139197473,0.07437003816917082,-1.0343640029344994
117.2280312,117.2280312,569.7664835,561.4285714,182.4165269,167.9644211,167.9188763,84,66,0.815533981,0.640776699,0.320160157,33275.78927,621.4285714,0.00640316,0.006683928,0.013087087,0.957993542,0.489273086,0.510726907,0.125,4.244980542,0.019104378,0.023955568,253.5816683,13.04552723,4.922455972,1.352770844,0.665330096,35489978.13,229041.7445,62940.92052,24378.75521,14005.91284,0.323664632,0.640224993,0.453809398,1.260131213,2.814190358,1.044920016,0.21150487,0.783154221,0.151124653,7.456779182,0.081378895,0.425871807,0.06507086,17.43101094,-0.01817472,0.078607841,-0.53741162,29.1842562,-65.47489359,64.81576106,101.7394107,0.737357143,0.41432679,48.21670296,19.81364764,851.7208102,29.18920385,0.016733465,-0.471575287,38.18247749,35784404.1,1.3671875,774.3580064,3.653709862,0.126669422,0.367816614,1.032337507,2.19017868,1.250198443,0.006179193,851.7208102,5.73e-06,1.75,1.35,2,2,20.845752891957524,2.3746264660390803,0.1247148037282235,0.43410714285714347,1.3710262139197473,0.07437003816917082,-1.0343640029344994
118.5697195,118.5697195,554.3783069,519.2857143,174.4794951,188.2089306,188.2037097,93,69,0.869158879,0.644859813,0.314730019,30443.09422,650.0,0.00084114,0.00539394,0.00623508,0.155941676,0.13490445,0.865095534,0.25,4.591644213,0.010662585,0.009064782,289.8860854,12.72929333,5.478631001,1.599176946,0.72507631,36757437.99,329296.5478,76919.52542,20715.77649,18403.93939,0.331547669,0.638658535,0.44679959,1.252557771,2.678558779,1.042530428,0.218338225,0.784247381,0.150457399,7.56164992,0.087846271,0.429129553,0.067888016,16.7706609,-0.019395474,0.083590121,-0.340394568,29.75134935,-65.47489359,64.81576106,106.3545073,0.716041308,0.465106111,51.17460531,17.56177027,885.1427881,29.75329657,0.00869112,-0.58381987,39.71352925,37180863.57,1.3671875,813.8600376,3.692980973,0.131568284,0.37930827,1.032881439,2.236413144,1.24031513,0.006987308,885.1427881,6.75e-06,1.816666667,1.4,2,2,20.845752891957524,2.3746264660390803,0.1247148037282235,0.43410714285714347,1.3710262139197473,0.07437003816917082,-1.0343640029344994
115.9397003,115.9397003,582.8571429,550.7142857,193.6630118,200.5420015,200.5174172,85,61,0.841584158,0.603960396,0.332264971,37505.36214,651.4285714,0.002486294,0.011984728,0.014471023,0.207455211,0.171811931,0.828188062,0.3125,4.407861858,0.020029158,0.02008399,270.2125088,10.50818812,3.950206703,1.115541325,0.315309096,26464941.19,131930.5589,45242.18662,10380.14216,11502.21676,0.275721223,0.56744569,0.42379965,1.240763458,2.542013773,1.08541677,0.182051617,0.791245688,0.126306915,8.330251907,0.058978586,0.424166966,0.062362673,18.97600278,-0.019853117,0.079988807,0.226928293,25.19281181,-65.45988322,64.80818671,100.5713072,0.776390977,0.600887925,43.37055281,20.2004988,634.6777667,25.19383383,0.001323297,0.06858106,28.52927644,26658629.05,1.3671875,603.7583633,3.408214717,0.097480895,0.356865679,1.024192044,2.09869218,1.254316159,0.006398209,634.6777667,7.17e-06,1.716666667,1.283333333,2,2,20.845752891957524,2.3746264660390803,0.1247148037282235,0.43410714285714347,1.3710262139197473,0.07437003816917082,-1.0343640029344994
107.2647433,107.2647433,621.8303571,687.8571429,173.8522497,203.6565842,203.6493691,73,59,0.768421053,0.621052632,0.279581477,30224.60472,651.4285714,0.000537544,0.005911559,0.006449103,0.090931046,0.083351781,0.916648203,0.375,4.547948164,0.013165844,0.011197808,251.9474996,9.360887595,2.6396552,0.432709416,0.096279221,20792585.14,22074.18721,8714.46855,3126.955302,2140.238648,0.212403678,0.452939448,0.407433166,1.216490959,2.338160425,1.118363229,0.148582006,0.794733293,0.094943961,7.801951054,0.03694907,0.422068129,0.033985705,33.26305805,-0.02070629,0.076317356,1.507900584,22.21449666,-65.45988322,64.77928239,86.64573023,0.945714286,0.733206679,38.59223031,19.50757292,493.4838619,22.26561533,0.078693982,0.659664676,23.34313441,20821820.29,1.3671875,469.1126131,2.684283936,0.056364041,0.225441182,1.008847588,1.896294376,1.389250544,0.005824339,493.4838619,1.15e-05,1.616666667,1.05,2,2,20.845752891957524,2.3746264660390803,0.1247148037282235,0.43410714285714347,1.3710262139197473,0.07437003816917082,-1.0343640029344994
102.3906109,102.3906109,637.0199693,697.1428571,154.8410748,173.1072058,173.1035954,69,50,0.75,0.543478261,0.24307099,23975.75843,562.8571429,0.000214228,0.005064564,0.005278791,0.042299324,0.040582703,0.959417278,0.3125,4.352881019,0.01066204,0.011237765,236.0771158,7.831805081,2.695614895,0.379350882,0.101957655,19991372.9,11081.95684,3693.726388,1521.764209,1235.974857,0.20855043,0.460094642,0.410883257,1.227126866,2.595814242,1.115126238,0.148825241,0.805173437,0.097900075,7.661944151,0.035585657,0.422256485,0.026577814,38.86787284,-0.02251018,0.073321025,1.805432655,21.74899332,-65.45318622,64.77742307,84.78445205,0.958220141,0.675618184,38.57664056,19.04046322,473.0187105,21.82380117,-0.008408991,0.932270255,22.21340952,20003688.5,1.3671875,422.2676267,2.592751576,0.050717725,0.185358762,1.00592911,1.890987671,1.421058023,0.005375973,473.0187105,1.93e-05,1.566666667,1.033333333,2,2,20.845752891957524,2.3746264660390803,0.1247148037282235,0.43410714285714347,1.3710262139197473,0.07437003816917082,-1.0343640029344994
103.2974194,103.2974194,643.3229814,727.1428571,175.4885573,201.2191481,201.207654,70,53,0.769230769,0.582417582,0.27278453,30796.23375,612.8571429,0.000110237,0.003540895,0.003651132,0.031132549,0.030192577,0.969807396,0.4375,4.054647088,0.013283962,0.018842502,228.665717,8.039219417,2.616747266,0.459210798,0.142783858,19014690.5,13577.11682,3703.762829,1719.392719,1026.132953,0.214144381,0.493104338,0.415842754,1.236003546,2.406103906,1.109993628,0.149368498,0.81466353,0.106085839,8.268810474,0.037598521,0.420158609,0.028600203,31.38813175,-0.022361189,0.071996248,0.488798831,21.27662728,-65.45318622,64.80033456,80.92237168,0.984428571,0.5897127,36.13625628,20.57811536,452.6948684,21.28224125,0.058594492,1.049652368,21.86379387,19023219.29,1.3671875,411.5184329,2.817410583,0.059170322,0.195163534,1.009541616,1.881213317,1.383874152,0.00518346,452.6948684,1.83e-05,1.55,1.016666667,2,2,20.845752891957524,2.3746264660390803,0.1247148037282235,0.43410714285714347,1.3710262139197473,0.07437003816917082,-1.0343640029344994
107.4819385,107.4819385,628.4194529,676.4285714,188.0717184,208.7185686,208.7167959,69,58,0.741935484,0.623655914,0.299277366,35370.97126,771.4285714,0.003524556,0.005531663,0.009056218,0.637160281,0.389186256,0.610813733,0.125,4.267454067,0.015385952,0.017653998,242.8528087,8.534422682,2.811166899,0.541520024,0.202679768,24230614.29,20760.90553,4746.645291,3263.342099,1761.844013,0.224020632,0.504069055,0.415741321,1.244475107,2.626691517,1.121982629,0.156030788,0.819623488,0.107644402,8.598180556,0.040537029,0.419342111,0.030027152,34.32388599,-0.020233042,0.075233069,0.10268381,24.01887956,-65.44494037,64.81280405,87.42981739,0.860725275,0.418807616,41.85174745,18.92121291,576.9065751,24.01909905,0.052811842,0.263365868,27.32307484,24230519.0,1.3671875,537.4348762,2.716287703,0.057220308,0.204522304,1.009519193,1.902614981,1.390007882,0.005660015,576.9065751,8.63e-06,1.583333333,1.1,2,2,20.845752891957524,2.3746264660390803,0.1247148037282235,0.43410714285714347,1.3710262139197473,0.07437003816917082,-1.0343640029344994
110.0791247,110.0791247,612.2533137,658.5714286,183.0635381,201.5202109,201.4635891,80,65,0.833333333,0.677083333,0.298999669,33512.259,567.1428571,0.00049393,0.005231901,0.005725831,0.094407268,0.086263378,0.913736604,0.6875,4.562227201,0.016193611,0.013072642,257.7080593,9.119245335,2.91717852,0.443953803,0.148002107,19934916.23,11950.53795,3264.813858,3414.780984,1468.474375,0.21462521,0.468448059,0.409922925,1.240223943,2.349345762,1.131866127,0.15005683,0.815777665,0.098180656,8.390376115,0.031723363,0.420246124,0.028753087,40.22786371,-0.020959054,0.077095214,1.03370642,21.76522566,-65.46818037,64.81280405,86.86818908,0.987690476,0.889428315,37.09940438,18.60943135,473.7250482,21.789759,-0.099185687,0.844161354,22.345972,19941331.08,1.3671875,441.5615679,2.466239759,0.045789621,0.198080984,1.006612598,1.842714114,1.421144117,0.005943672,473.7250482,9.27e-06,1.633333333,1.016666667,2,2,20.845752891957524,2.3746264660390803,0.1247148037282235,0.43410714285714347,1.3710262139197473,0.07437003816917082,-1.0343640029344994
110.0064647,110.0064647,611.089838,642.8571429,184.7015292,204.0873787,204.0866756,79,66,0.822916667,0.6875,0.302249387,34114.65488,562.8571429,0.000699269,0.008282057,0.008981326,0.084431812,0.07785811,0.922141879,0.75,4.383310218,0.015594763,0.016319472,261.4598417,8.369922888,2.997361585,0.561999993,0.120219014,18443376.81,10783.35933,2032.290809,2301.153093,879.6956922,0.211032883,0.474360797,0.4074621,1.218165625,2.624838106,1.129595144,0.142813102,0.802400087,0.099109588,8.620667098,0.029730259,0.422075077,0.026042362,39.4667208,-0.020002948,0.078179122,1.528881284,20.87280196,-65.46818037,64.80674855,73.59554323,1.218396501,1.03978583,36.13534773,19.86304541,435.6738618,20.92872045,0.120576975,1.370153634,18.55177191,18396476.27,1.3671875,400.5660948,2.544053736,0.04730642,0.182476456,1.009031356,1.761177505,1.419255952,0.006111975,435.6738618,7.31e-06,1.633333333,0.833333333,2,2,20.845752891957524,2.3746264660390803,0.1247148037282235,0.43410714285714347,1.3710262139197473,0.07437003816917082,-1.0343640029344994
113.9175086,113.9175086,583.8655462,614.2857143,172.3256858,192.8933907,192.8844912,86,68,0.851485149,0.673267327,0.29514618,29696.14199,554.2857143,0.002974554,0.007185067,0.010159621,0.413991174,0.292782007,0.707217983,0.25,4.525063872,0.01375308,0.013431915,270.0718129,9.324432426,3.098075161,0.699368183,0.226684698,26757519.49,14982.24081,6185.589128,2495.359338,1463.297657,0.22474468,0.510749946,0.41102779,1.221032874,2.361260566,1.111798686,0.150509125,0.802496779,0.108223527,8.865008811,0.037531451,0.420763443,0.02745699,38.5769297,-0.018104632,0.079838495,1.031251125,25.23095469,-65.41610373,64.81343063,80.27135205,1.007684729,0.780306596,44.76714972,18.97274799,636.6010745,25.25202078,0.027670676,0.20001204,26.87700318,26781911.24,1.3671875,584.8740904,2.578945899,0.053143042,0.190749463,1.00975438,1.971814237,1.420727805,0.006374185,636.6010745,9.02e-06,1.716666667,0.983333333,2,2,20.845752891957524,2.3746264660390803,0.1247148037282235,0.43410714285714347,1.3710262139197473,0.07437003816917082,-1.0343640029344994
115.8842132,115.8842132,587.2135785,560.0,200.5604772,230.3977041,230.3713347,90,75,0.9,0.75,0.341546048,40224.505,1007.142857,0.003679964,0.003690041,0.007370005,0.997268992,0.499316314,0.500683672,0.1875,4.510027538,0.02257193,0.021260101,267.4236855,9.120883481,2.849476804,0.631621548,0.219160764,23736316.19,11442.30556,6932.900497,2068.46286,1456.362461,0.220764754,0.501712092,0.402218445,1.234271255,2.658341516,1.11101805,0.150925947,0.80272676,0.106443712,8.935697135,0.033175809,0.417504254,0.027286557,40.1206086,-0.02096726,0.078946794,-0.146340535,23.78233546,-65.47559169,64.81343063,83.39455133,1.036090226,0.819029078,42.48088138,20.15682175,565.5994802,23.7827857,-0.095056002,0.505316765,23.4288521,23756077.62,1.3671875,510.7268853,2.511490018,0.049214189,0.190126121,1.008312545,1.906086574,1.447047879,0.006232596,565.5994802,8.08e-06,1.7,0.966666667,2,2,20.845752891957524,2.3746264660390803,0.1247148037282235,0.43410714285714347,1.3710262139197473,0.07437003816917082,-1.0343640029344994
137.682236,137.682236,489.3793911,460.7142857,180.9443267,278.8965801,278.8958514,112,101,0.925619835,0.834710744,0.369742433,32740.84937,661.4285714,0.000749032,0.00055407,0.001303102,1.351873086,0.574806989,0.425192935,1.75,4.493838977,0.015012726,0.014415791,316.2595103,13.41208238,6.42802175,0.953140428,0.099067468,4791118.177,282.7567668,168.9470786,62.63078421,45.07137387,0.389549397,0.501815335,0.41624459,1.274891532,2.968750372,1.050071962,0.314642814,0.729361699,0.11077161,5.628170855,0.03269854,0.386852516,0.015701489,44.20504684,-0.011286748,0.088871012,-0.697886734,10.65298584,-27.99760798,18.21993984,71.56963634,0.855113872,0.115953515,12.46727917,2.23909145,113.4861073,10.67582096,-0.427441919,-1.011835419,18.27006144,4786872.436,1.3671875,118.3930661,1.960374828,0.037105782,0.118067013,1.001445799,1.976227415,1.467895093,0.007898057,113.4861073,3.89e-05,2.05,1.166666667,2,4,20.845752891957524,2.3746264660390803,0.1247148037282235,0.43410714285714347,1.3710262139197473,0.07437003816917082,-1.0343640029344994
133.4284375,133.4284375,508.4859585,474.2857143,190.830375,283.105889,283.0945219,107,101,0.922413793,0.870689655,0.375291337,36416.23201,697.1428571,0.000469411,0.00195517,0.002424581,0.240087183,0.193605084,0.806394875,0.8125,4.620490393,0.017737544,0.015211174,314.4208237,14.51805829,6.28118893,0.872920098,0.092752329,6459228.092,433.445408,223.4087789,85.48446782,72.16765048,0.382882384,0.497575763,0.416538568,1.271376283,3.063053492,1.053139711,0.309903756,0.727395574,0.109729175,5.614530514,0.032860391,0.38330684,0.016039843,43.91441571,-0.012208803,0.088625836,-0.686200559,12.36930455,-32.58034193,20.50851051,70.21849144,0.860662526,0.072272276,15.0010774,2.576905694,152.9996951,12.38832379,-0.44022229,-0.992799445,21.17059501,6445763.784,1.3671875,160.9814329,1.994304155,0.037567848,0.120353603,1.001297641,1.926282196,1.460150979,0.007854539,152.9996951,4.07e-05,1.966666667,1.166666667,2,4,20.845752891957524,2.3746264660390803,0.1247148037282235,0.43410714285714347,1.3710262139197473,0.07437003816917082,-1.0343640029344994
131.5480257,131.5480257,509.7536946,450.7142857,182.9987402,274.1141091,274.1138724,108,102,0.939130435,0.886956522,0.358994436,33488.53891,697.1428571,0.000362018,0.003031368,0.003393386,0.119423807,0.106683283,0.893316688,1.3125,4.620755509,0.017373317,0.012975221,316.3131168,13.57537069,6.377229708,0.831438267,0.091571211,8281268.852,846.1393652,367.298399,239.5152739,215.5569096,0.375999876,0.492452989,0.416435295,1.273728936,3.011374969,1.054287411,0.30624357,0.724173718,0.108315538,5.628498998,0.033778958,0.383159279,0.01836912,47.6751808,-0.012815281,0.088677873,-0.800213007,13.9922268,-40.49848248,42.67195244,74.01106866,0.832374245,0.107002576,17.79806487,4.368954995,195.7824109,14.01509014,-0.349340115,-0.990400379,24.15279256,8249755.573,1.3671875,200.5759364,2.067526222,0.039169784,0.136868491,1.001241672,1.786696995,1.447622307,0.007863765,195.7824109,1.82e-05,1.95,1.2,2,4,20.845752891957524,2.3746264660390803,0.1247148037282235,0.43410714285714347,1.3710262139197473,0.07437003816917082,-1.0343640029344994
129.7248839,129.7248839,523.6030341,467.1428571,195.3616095,274.0205856,273.9829599,99,90,0.883928571,0.803571429,0.373110156,38166.15847,747.1428571,0.000782765,0.005325317,0.006108083,0.146989385,0.12815235,0.871847634,0.3125,4.739535272,0.016759946,0.010629395,320.9873158,12.79648885,6.493953925,0.806830455,0.089108274,8967172.143,1464.308547,386.2137788,271.7076802,232.2843778,0.372486918,0.489797161,0.413680388,1.27533306,2.894907442,1.056526823,0.302977286,0.721107219,0.107485839,5.628592703,0.033834028,0.383645032,0.018525682,48.08353898,-0.012373546,0.089233852,-0.942907983,14.57576133,-40.49848248,42.67195244,74.41753216,0.828470825,0.112128618,18.43827488,4.154511777,212.4528184,14.60622791,-0.347559658,-1.040498375,25.28765565,8960359.542,1.3671875,217.7393032,2.075001716,0.0390166,0.137928155,1.001270718,1.870806066,1.446167859,0.00796268,212.4528184,9.32e-06,1.9,1.2,2,4,20.845752891957524,2.3746264660390803,0.1247148037282235,0.43410714285714347,1.3710262139197473,0.07437003816917082,-1.0343640029344994
134.0796252,134.0796252,507.7899878,458.5714286,192.2250752,274.4216297,274.4055792,107,98,0.922413793,0.844827586,0.378552315,36950.47953,747.1428571,0.000563276,0.005850985,0.006414261,0.096270296,0.087816204,0.91218378,0.8125,4.652087423,0.018457481,0.014548208,324.0396695,12.35711528,6.650316647,0.841563094,0.088104355,10210327.64,1516.674171,603.0975781,215.5471213,253.6856344,0.375525789,0.491029095,0.41306699,1.27511098,3.103040631,1.055119297,0.306512402,0.717806676,0.108034245,5.579029198,0.032511703,0.382542261,0.018013877,48.07531352,-0.012830542,0.089558831,-0.939767822,15.52341175,-39.93114843,24.55559684,72.09586317,0.837162978,0.069168882,19.40655955,2.185418025,240.9763123,15.55183191,-0.413755421,-1.116084451,27.29559195,10158097.99,1.3671875,244.5769982,2.018373869,0.037987361,0.134592338,1.00111597,1.877299198,1.447650947,0.008020784,240.9763123,2.69e-05,1.966666667,1.2,2,4,20.845752891957524,2.3746264660390803,0.1247148037282235,0.43410714285714347,1.3710262139197473,0.07437003816917082,-1.0343640029344994
137.2997534,137.2997534,495.9642857,465.0,185.950277,286.1114287,286.1029019,116,110,0.974789916,0.924369748,0.374926749,34577.50553,648.5714286,0.000783656,0.002708576,0.003492232,0.2893238,0.224399643,0.775600329,1.6875,4.681324166,0.016703691,0.012279014,320.5016121,13.28669596,6.676582011,0.850588774,0.084510466,12463615.49,786.0194884,559.2605231,190.4576408,227.3677501,0.376971847,0.490187456,0.41565306,1.27875333,3.020646354,1.056564357,0.304781461,0.714681128,0.10799078,5.523554679,0.031937328,0.379207098,0.016740438,46.6856051,-0.013050095,0.089130084,-0.874027775,17.1775052,-44.73607518,28.49699759,70.82789037,0.851653061,0.063014476,21.58043503,2.595231935,295.066685,17.19972702,-0.396988369,-1.11087934,30.03425251,12424885.6,1.3671875,308.4738158,1.998069355,0.036402424,0.125821529,1.001243342,1.892374265,1.459026201,0.007944172,295.066685,2.51e-05,2.016666667,1.183333333,2,4,20.845752891957524,2.3746264660390803,0.1247148037282235,0.43410714285714347,1.3710262139197473,0.07437003816917082,-1.0343640029344994
136.7964339,136.7964339,503.4813926,477.1428571,198.7669621,289.3533685,289.3533621,109,105,0.923728814,0.889830508,0.39478512,39508.30522,725.7142857,0.001256104,0.003156822,0.004412927,0.397901473,0.284642002,0.715357976,1.875,4.707211432,0.017994458,0.012383174,327.423225,12.2488953,6.665026825,0.805846531,0.080842531,12449314.91,983.8538008,808.5109193,251.8279616,169.6237495,0.371367719,0.486510741,0.419657648,1.273601434,2.810977452,1.059157655,0.298688138,0.710668218,0.107042249,5.495305343,0.031259486,0.372827402,0.017312745,49.47550508,-0.013240241,0.089904115,-0.922985366,17.18568601,-47.58714456,38.49559856,70.80252615,0.854927536,0.082075104,21.40931994,3.708752167,295.3478035,17.21045338,-0.384061482,-1.027385112,29.52764037,12440387.63,1.3671875,307.5419442,1.980014888,0.03621689,0.13027155,1.001242167,1.836237149,1.462438597,0.00808275,295.3478035,6.18e-05,2.0,1.166666667,2,4,20.845752891957524,2.3746264660390803,0.1247148037282235,0.43410714285714347,1.3710262139197473,0.07437003816917082,-1.0343640029344994
131.449171,131.449171,527.7496839,455.7142857,209.6126622,274.380564,274.3804454,103,91,0.919642857,0.8125,0.397181976,43937.46813,725.7142857,0.001544946,0.003562143,0.005107089,0.433712359,0.302510023,0.697489957,0.6875,4.785860432,0.020751948,0.011667504,335.3908306,14.30772288,6.863025047,0.761397262,0.083230871,10698083.75,2236.473751,1475.720474,568.0508416,358.2668976,0.375271595,0.489514914,0.42658625,1.264457066,2.63719685,1.05189265,0.303892647,0.708350543,0.108356986,5.395185571,0.032967324,0.372177996,0.021280159,48.43071184,-0.014488847,0.090688116,-0.846977232,15.92931635,-47.58714456,38.49559856,74.85351827,0.810684932,0.088373021,20.23513508,3.658934666,253.7431192,15.95181775,-0.393445915,-0.98285088,27.23839486,10687340.57,1.3671875,249.3410387,2.034589173,0.039739229,0.155583579,1.001235402,1.819470237,1.435721353,0.008224334,253.7431192,3.79e-05,1.9,1.233333333,2,4,20.845752891957524,2.3746264660390803,0.1247148037282235,0.43410714285714347,1.3710262139197473,0.07437003816917082,-1.0343640029344994
124.1454384,124.1454384,554.2724868,492.8571429,200.565291,257.8135076,257.8134658,97,81,0.906542056,0.757009346,0.361853232,40226.43596,715.7142857,0.001187135,0.005538395,0.006725531,0.214346447,0.176511775,0.82348821,0.75,4.502533324,0.018505131,0.015856094,335.7109343,15.29931782,7.270414759,0.792003945,0.088275904,9636312.084,2960.026129,1156.531059,622.1214989,422.0923267,0.385786633,0.495407639,0.429607828,1.262591381,3.036753041,1.047074268,0.310196669,0.710421798,0.110400146,5.289616179,0.034733555,0.369460386,0.022136511,46.48919677,-0.014737671,0.091236104,-0.849134688,15.12327206,-35.16262348,25.47351353,77.20795339,0.782293233,0.063593634,19.59631487,3.037977692,228.7133577,15.14709172,-0.389248733,-1.098770997,26.05786104,9636244.273,1.3671875,219.6205422,2.06136462,0.042108635,0.160536999,1.001230495,2.05550432,1.412147015,0.008324027,228.7133577,1.54e-05,1.816666667,1.283333333,2,4,20.845752891957524,2.3746264660390803,0.1247148037282235,0.43410714285714347,1.3710262139197473,0.07437003816917082,-1.0343640029344994
125.6996187,125.6996187,543.6883117,464.2857143,194.9446791,242.9164217,242.9131633,99,85,0.908256881,0.779816514,0.358559629,38003.4279,591.4285714,0.001788538,0.0036204,0.005408938,0.494016684,0.330663432,0.66933655,0.75,4.571433628,0.017789709,0.014931766,330.9590117,16.36810289,7.277110163,0.841084906,0.090499768,10654761.67,1935.701096,875.7597031,559.3564151,433.3268365,0.393883125,0.498917508,0.432695865,1.262069487,2.846007165,1.042378477,0.319712202,0.712417292,0.111581576,5.24409351,0.034063729,0.366400569,0.021049179,47.01170482,-0.01478273,0.090706964,-0.98116696,15.89658198,-38.45210477,34.54852183,77.05270272,0.780676692,0.039609041,20.60098174,3.127298262,252.7013187,15.92683293,-0.369475979,-1.098686789,27.43086166,10653888.31,1.3671875,239.9559293,2.00940586,0.041577272,0.153873608,1.001267623,1.943176766,1.417262353,0.008227753,252.7013187,2.05e-05,1.85,1.283333333,2,4,20.845752891957524,2.3746264660390803,0.1247148037282235,0.43410714285714347,1.3710262139197473,0.07437003816917082,-1.0343640029344994
126.9074555,126.9074555,540.4025974,457.8571429,203.3180361,232.6709288,232.6551114,97,83,0.889908257,0.76146789,0.37623438,41338.22382,701.4285714,0.003466558,0.011508526,0.014975084,0.301216494,0.231488377,0.768511617,0.1875,4.309254258,0.020759234,0.024644892,313.9292008,13.69549432,6.829630552,0.82567842,0.082393196,13646733.9,5826.643477,1522.715901,835.3796414,526.4324553,0.395246939,0.500049926,0.430680331,1.269774172,2.652248822,1.042234706,0.321750455,0.708660584,0.112138081,5.232343758,0.033457672,0.370115803,0.023060026,47.06640002,-0.015340595,0.087604825,-1.050610955,17.98310424,-40.42289137,63.65886417,74.81980322,0.807625483,0.070399254,23.95874759,5.501463504,323.392038,18.01376755,-0.364585828,-1.123550129,31.48003374,13628824.5,1.3671875,322.8959907,2.052180117,0.039875117,0.166144398,1.002191235,1.909706886,1.421375025,0.007674605,323.392038,8.64e-06,1.85,1.25,2,4,20.845752891957524,2.3746264660390803,0.1247148037282235,0.43410714285714347,1.3710262139197473,0.07437003816917082,-1.0343640029344994
78.16474833,78.16474833,820.7539683,860.7142857,175.9905513,224.5678677,224.5635762,61,43,0.85915493,0.605633803,0.214425465,30972.67416,835.7142857,0.00017732,0.004173993,0.004351313,0.042482105,0.04075092,0.959249057,0.5625,4.309035033,0.018265673,0.020343619,187.9819952,7.31380129,3.383277529,0.438747993,0.103019688,20484946.99,8567.480386,1874.557722,1255.7228,682.7095363,0.282746142,0.509536208,0.422000171,1.252211425,2.642929209,1.046519409,0.208033912,0.686162917,0.112164585,6.706897898,0.036710439,0.407232024,0.023253084,38.86467829,-0.016382712,0.066867247,0.363290506,22.0478081,-65.43552665,64.76899236,82.84867331,0.861304348,0.352821621,29.62067483,17.03587504,486.1058422,22.05080094,-0.228731908,0.196246487,28.87081636,20421988.53,1.3671875,502.1019499,2.478080894,0.048972691,0.165872433,1.006807548,1.794358697,1.42415094,0.004471229,486.1058422,1.64e-05,1.216666667,1.166666667,2,3,20.845752891957524,2.3746264660390803,0.1247148037282235,0.43410714285714347,1.3710262139197473,0.07437003816917082,-1.0343640029344994
89.37794816,89.37794816,744.3392857,831.4285714,193.1622512,208.8981562,208.8926336,64,48,0.810126582,0.607594937,0.259508338,37311.65529,661.4285714,0.003108938,0.002909966,0.006018904,1.06837607,0.516528926,0.483471057,0.125,4.341053228,0.012184237,0.01272172,200.2880929,8.089236897,3.483871438,0.59990284,0.112316473,20481350.26,8487.574123,3069.240423,879.4697754,1044.809789,0.298701706,0.518318358,0.422912046,1.252759597,2.710535454,1.044797329,0.217842767,0.694219606,0.114456241,6.816069122,0.03361855,0.403509509,0.024904607,36.01603794,-0.016979525,0.069081688,-0.380320857,22.06734284,-65.37003253,64.80210073,82.52280164,0.861884058,0.356434037,30.97489833,19.02276374,486.9676198,22.07061992,-0.222962728,0.229314335,29.90618513,20458715.08,0.68359375,458.6439616,2.599649361,0.049483624,0.175042959,1.00746247,1.820129476,1.42835632,0.00477228,486.9676198,1.1e-05,1.35,1.166666667,2,3,20.845752891957524,2.3746264660390803,0.1247148037282235,0.43410714285714347,1.3710262139197473,0.07437003816917082,-1.0343640029344994
95.57216656,95.57216656,697.9159664,770.0,194.0536866,241.4135768,241.3818857,73,63,0.869047619,0.75,0.278047352,37656.83327,747.1428571,0.004550069,0.014872459,0.019422528,0.30593926,0.234267603,0.765732392,0.25,4.213465516,0.022824464,0.02695145,191.1657048,9.013774363,3.353143668,0.702057252,0.142402288,32238679.79,25249.31888,6943.646705,3082.216695,1881.781911,0.309070572,0.54306709,0.427136912,1.249999258,2.696009946,1.047154975,0.2260822,0.694322569,0.120956622,7.004641302,0.047061322,0.416569354,0.028520357,33.24475042,-0.01578115,0.067936887,0.172431188,27.71380864,-65.47672596,64.80210073,98.79238497,0.762106227,0.48454701,42.91920718,19.1687437,768.0551891,27.71434505,-0.047865725,-0.405406993,36.93778814,32259566.71,1.3671875,734.4760419,2.771888131,0.060375944,0.195530139,1.009215684,1.976872946,1.403876119,0.004615421,768.0551891,6.84e-06,1.433333333,1.316666667,2,3,20.845752891957524,2.3746264660390803,0.1247148037282235,0.43410714285714347,1.3710262139197473,0.07437003816917082,-1.0343640029344994
83.37243481,83.37243481,765.3479853,821.4285714,156.2286822,189.741828,189.7383413,60,44,0.779220779,0.571428571,0.204127645,24407.40115,747.1428571,0.00037465,0.003265296,0.003639946,0.11473692,0.102927353,0.89707262,0.75,4.605254057,0.013219218,0.010187405,178.7334044,6.682051919,2.958251865,0.577526545,0.099751521,25681691.99,15035.51908,5276.464189,3239.38212,1402.653139,0.302218113,0.531682643,0.426332163,1.247266024,2.725759025,1.037750214,0.226799285,0.690056538,0.11836756,6.713677103,0.041532011,0.419457492,0.028295266,35.27775486,-0.015404806,0.065252276,1.2475807,24.70384022,-65.47672596,64.77876135,92.6757686,0.849285714,0.526850134,40.82489601,18.67557362,610.2797214,24.7353225,0.016096269,0.122825209,28.9205756,25697119.52,1.3671875,613.5447021,2.631707738,0.056616665,0.194723805,1.007495241,1.925365905,1.388426821,0.004257859,610.2797214,6.22e-06,1.316666667,1.183333333,2,3,20.845752891957524,2.3746264660390803,0.1247148037282235,0.43410714285714347,1.3710262139197473,0.07437003816917082,-1.0343640029344994
74.04503403,74.04503403,832.77666,855.7142857,121.8582497,116.2231191,116.182797,53,32,0.757142857,0.457142857,0.146327648,14849.43302,621.4285714,0.001425828,0.003511372,0.0049372,0.406059918,0.288792755,0.711207224,0.1875,4.14045586,0.008177935,0.010693058,183.8464144,7.782951901,2.830196596,0.500243169,0.067687617,16287297.93,6250.759149,1626.278759,1029.076899,700.3764891,0.288122874,0.502872444,0.422328281,1.248908499,2.725901562,1.042641526,0.21642033,0.689075884,0.110778016,6.422235339,0.034021538,0.4092081,0.022561681,43.09562959,-0.01574011,0.066300126,-0.099751931,19.69774271,-65.44012043,64.77876135,79.60348134,0.893658009,0.35127545,28.04607204,16.95516941,388.0010679,19.69799529,-0.107201065,0.792465282,23.34765628,16296462.77,0.68359375,382.2901522,2.426239727,0.04495536,0.162725805,1.004838126,1.843763862,1.463581143,0.004395707,388.0010679,7.84e-06,1.2,1.116666667,2,3,20.845752891957524,2.3746264660390803,0.1247148037282235,0.43410714285714347,1.3710262139197473,0.07437003816917082,-1.0343640029344994
71.20217893,71.20217893,860.8695652,868.5714286,108.6755024,115.3568502,115.3399458,56,36,0.823529412,0.529411765,0.12623922,11810.36483,640.0,0.000190463,0.001474167,0.00166463,0.129200631,0.114417782,0.885582158,0.4375,4.022623176,0.004550402,0.006480662,187.0945299,7.667015959,2.716670603,0.41555027,0.049531283,12543143.44,3134.106434,1013.083454,518.5203863,491.4913193,0.277162665,0.478776272,0.417753737,1.247558602,2.433927123,1.050213869,0.208302918,0.686912122,0.105104999,5.953455537,0.030639057,0.382630122,0.020437267,47.07187572,-0.015753141,0.066530437,-0.723225476,17.26779899,-65.3577477,64.63984758,74.67980977,0.877484009,0.250750818,21.87819982,12.40006474,298.1768818,17.28293774,-0.257452133,0.676395731,24.76141084,12545397.35,0.68359375,298.4944331,2.267922495,0.041256419,0.150165204,1.002471404,1.764386374,1.482428729,0.004426299,298.1768818,7.42e-06,1.166666667,1.133333333,2,3,20.845752891957524,2.3746264660390803,0.1247148037282235,0.43410714285714347,1.3710262139197473,0.07437003816917082,-1.0343640029344994
82.00452097,82.00452097,798.976834,849.2857143,176.5851728,127.6516349,127.4065697,59,38,0.808219178,0.520547945,0.221014134,31182.32324,755.7142857,0.00070224,0.000718602,0.001420843,0.977230629,0.494242105,0.505757824,0.0,3.960672273,0.002860675,0.004617749,184.4507359,8.100881893,3.179778573,0.559996522,0.112027459,10672593.66,48126.25835,12476.62968,11057.37698,2173.277643,0.275686096,0.530104832,0.426609794,1.2411427,2.712608628,1.037124818,0.20523708,0.690870272,0.11766595,6.831344712,0.032127587,0.377688463,0.053878601,22.54388887,-0.015816703,0.066523283,-0.205130992,15.98672974,-65.33224103,64.77823862,75.20229981,0.84777551,0.217232076,19.90873697,11.87625589,255.5755279,15.98804574,-0.12599455,0.73370165,24.64397823,10735939.48,1.3671875,248.3660556,2.780355963,0.05824483,0.32042152,1.01465649,1.80827443,1.289105484,0.004425347,255.5755279,6.32e-06,1.25,1.183333333,2,3,20.845752891957524,2.3746264660390803,0.1247148037282235,0.43410714285714347,1.3710262139197473,0.07437003816917082,-1.0343640029344994
83.68462496,83.68462496,791.1428571,850.0,184.8656066,158.6465438,158.6393976,59,33,0.797297297,0.445945946,0.233669059,34175.29252,812.8571429,0.013296336,0.012527359,0.025823695,1.06138376,0.51488897,0.485111026,0.0625,3.654880197,0.030561696,0.053763128,192.0649914,8.427709792,2.93880377,0.650299019,0.132256285,26871587.66,50698.01119,14890.6366,12276.34938,2668.457576,0.233243627,0.52944327,0.422374442,1.220874469,2.476433519,1.039752194,0.1530325,0.708371039,0.116441738,7.199778304,0.036687924,0.396080235,0.038570604,30.40938384,-0.015532809,0.067900307,0.821483892,25.31106549,-65.47446312,64.77823862,73.0186698,0.927589286,0.450403368,31.55607419,14.36078856,640.6500363,25.32439283,-0.48214819,-0.240386061,34.09450671,26935644.63,1.3671875,656.0621032,2.395204333,0.057030371,0.248942859,1.012012555,1.937094617,1.342424634,0.004610452,640.6500363,1.47e-05,1.266666667,1.083333333,2,3,20.845752891957524,2.3746264660390803,0.1247148037282235,0.43410714285714347,1.3710262139197473,0.07437003816917082,-1.0343640029344994
79.26263877,79.26263877,810.5675147,864.2857143,167.4507075,196.0171738,196.016977,59,41,0.819444444,0.569444444,0.206584528,28039.73943,812.8571429,0.006963597,0.001376968,0.008340565,5.057194649,0.834907072,0.165092916,0.0625,4.088702838,0.018193923,0.026671972,192.0160518,7.962480322,2.254518621,0.548240609,0.128705812,39995703.26,47081.37926,14080.5618,4880.523308,3058.263086,0.190750481,0.506155715,0.409331425,1.19467553,2.471056757,1.066342708,0.11255409,0.730461123,0.108712047,7.737694784,0.04325855,0.404989187,0.03169723,33.62507578,-0.01545256,0.06774639,1.623083431,30.82253646,-65.47446312,64.78173913,87.64276161,0.773759398,0.230598721,41.73707582,13.70740849,950.0287539,30.86524184,-0.366289429,-0.888355676,50.45499885,40011852.46,1.3671875,999.7078474,2.589247361,0.05917039,0.213397028,1.008847279,1.982774407,1.367363422,0.004589573,950.0287539,1.13e-05,1.233333333,1.283333333,2,3,20.845752891957524,2.3746264660390803,0.1247148037282235,0.43410714285714347,1.3710262139197473,0.07437003816917082,-1.0343640029344994
99.374667,99.374667,689.0804598,767.1428571,213.7809026,229.3108886,229.3099259,72,57,0.837209302,0.662790698,0.310240843,45702.27431,724.2857143,0.000544751,0.00665783,0.007202581,0.081821051,0.075632704,0.924367282,0.75,4.135234042,0.02009705,0.025006852,282.152999,10.85008783,7.01310798,0.848795635,0.246651119,11987460.64,38583.5116,7089.563557,1921.610687,1511.762481,0.371499198,0.54752138,0.419219447,1.304847464,2.753960397,1.065870921,0.297593467,0.699422084,0.122295507,6.975284637,0.039294369,0.398341715,0.043433333,19.02093691,-0.018963886,0.082439788,0.843391545,16.90189718,-65.4498019,64.74589632,87.50958527,0.812093933,0.35770774,23.01554139,17.82001476,285.6741284,16.92292639,-0.17756695,1.962865748,20.88357218,12028188.38,1.3671875,288.7419499,3.344764329,0.095303607,0.267081854,1.020370104,1.890437401,1.27049035,0.006796319,285.6741284,1.12e-05,1.466666667,1.233333333,2,4,20.845752891957524,2.3746264660390803,0.1247148037282235,0.43410714285714347,1.3710262139197473,0.07437003816917082,-1.0343640029344994
88.71042497,88.71042497,760.1282051,807.1428571,202.5826428,230.8668944,230.7861897,66,48,0.857142857,0.623376623,0.266511151,41039.72715,715.7142857,0.000964734,0.006885222,0.007849956,0.140116634,0.122896755,0.877103233,0.6875,4.279865661,0.025327428,0.029192089,261.8139076,9.725764281,6.699321894,0.51415054,0.045153374,11025265.12,4606.40389,2577.666404,1129.679861,934.7323216,0.359313096,0.480322906,0.405986044,1.309717541,2.713240057,1.069332268,0.301301923,0.687309827,0.108362627,4.953249216,0.03126067,0.375661955,0.02659117,43.06348875,-0.018497188,0.079136286,0.899760262,16.17561138,-42.19807257,28.01525323,71.14934673,0.860621118,0.122871702,19.38930237,4.189200896,261.6504036,16.20061641,-0.615498032,-0.680700615,25.8640716,11023318.83,1.3671875,280.501998,2.252825898,0.042505447,0.186195618,1.001556305,1.987150981,1.411420393,0.006262552,261.6504036,5.54e-06,1.316666667,1.166666667,2,4,20.845752891957524,2.3746264660390803,0.1247148037282235,0.43410714285714347,1.3710262139197473,0.07437003816917082,-1.0343640029344994
86.86392652,86.86392652,759.4871795,806.4285714,176.4487723,183.7941265,183.793943,68,46,0.883116883,0.597402597,0.232326203,31134.16925,714.2857143,0.001224881,0.014554795,0.015779676,0.084156542,0.077623976,0.922376017,0.25,3.912852418,0.015673142,0.023539964,257.814393,9.174285715,6.875975915,0.508262318,0.038521629,9611213.025,3449.004608,1350.363185,789.3627563,595.2743394,0.361635333,0.479869759,0.401560581,1.312609627,2.920950096,1.074075689,0.308193091,0.681582444,0.109155866,4.81753489,0.033781393,0.383562116,0.024165084,44.80356654,-0.020060372,0.078294471,0.853930991,15.10615146,-42.19807257,28.01525323,71.95347004,0.847,0.121269319,18.00671871,5.125891463,228.195812,15.13026801,-0.633443615,-0.455159818,22.65879354,9614850.426,1.3671875,232.7805017,2.214655981,0.042915309,0.172445856,1.001079504,1.957952609,1.415439018,0.006130024,228.195812,9.73e-06,1.316666667,1.183333333,2,4,20.845752891957524,2.3746264660390803,0.1247148037282235,0.43410714285714347,1.3710262139197473,0.07437003816917082,-1.0343640029344994
79.76356645,79.76356645,793.6190476,827.1428571,136.1666313,140.3211194,140.2912369,56,39,0.756756757,0.527027027,0.171576818,18541.35147,680.0,0.001417648,0.001331543,0.002749191,1.064664877,0.515659897,0.484340067,0.6875,4.02000355,0.008085992,0.010907566,237.652289,8.750798939,7.303854422,0.514845649,0.037116914,9398042.07,3486.194726,901.4310326,532.5232639,413.2340839,0.38238538,0.495386554,0.407257821,1.315181708,2.847342091,1.060341625,0.3305777,0.680383533,0.114815294,4.564530406,0.033609975,0.396668342,0.022514758,42.88503075,-0.019718677,0.075248425,0.948001792,14.91861062,-65.01340794,64.56971391,80.07780179,0.796467181,0.176930098,18.17726124,9.896523058,222.5649428,14.94870062,-0.496614355,0.907724014,21.02839662,9385473.309,1.3671875,223.0289988,2.284783053,0.045754352,0.162133063,1.001805698,1.729392647,1.40665851,0.005662325,222.5649428,1.56e-05,1.266666667,1.25,2,4,20.845752891957524,2.3746264660390803,0.1247148037282235,0.43410714285714347,1.3710262139197473,0.07437003816917082,-1.0343640029344994
70.93774641,70.93774641,849.2653061,858.5714286,53.72358954,69.608913,69.60839265,44,24,0.637681159,0.347826087,0.063258901,2886.224073,282.8571429,3.5e-05,0.000408655,0.000443702,0.085760638,0.078986689,0.921013086,0.625,4.226545506,0.001308101,0.001635103,236.7525096,9.721220306,7.285776727,0.490155488,0.036544961,15074203.39,2112.536365,1202.286947,628.2741156,533.9632433,0.378087824,0.493471412,0.408399857,1.312452864,2.934012229,1.051844955,0.328213316,0.679069544,0.114490372,4.513017955,0.03353356,0.391479331,0.020537616,45.42830052,-0.0199,0.075214573,1.112765795,18.9053606,-65.01340794,64.56971391,78.18506733,0.814087302,0.172938343,23.8834715,9.299341364,357.4126593,18.93808087,-0.49513013,-0.37384682,29.14149608,15063338.09,1.3671875,369.0593314,2.172694488,0.043527691,0.15036691,1.001389698,1.815804359,1.426283571,0.005657232,357.4126593,1.84e-05,1.183333333,1.216666667,2,4,20.845752891957524,2.3746264660390803,0.1247148037282235,0.43410714285714347,1.3710262139197473,0.07437003816917082,-1.0343640029344994
70.12576628,70.12576628,859.5238095,862.8571429,58.15189173,74.17918185,74.13704216,55,25,0.808823529,0.367647059,0.067655941,3381.642512,342.8571429,0.000151505,0.000100114,0.000251619,1.513329114,0.602121348,0.397878255,0.4375,4.075131381,0.000966026,0.001266895,229.9309861,9.083589528,7.066605956,0.502269047,0.033000509,19603245.62,2499.425586,1247.37331,571.3353841,580.1151809,0.383676124,0.495513001,0.40573885,1.313766396,2.986122928,1.050699339,0.334046472,0.678228167,0.115627034,4.455257891,0.030155214,0.372182307,0.018581721,48.53997519,-0.020426397,0.073854555,1.223399816,21.57195901,-51.57707782,39.44485074,70.65812736,0.857494824,0.076491153,27.77819704,3.848223312,465.3494153,21.60662219,-0.52244507,-0.975317964,36.59563222,19607537.14,1.3671875,495.1476185,2.075293041,0.03895597,0.138440424,1.000794663,1.984704066,1.443122948,0.005454495,465.3494153,1.61e-05,1.166666667,1.166666667,2,4,20.845752891957524,2.3746264660390803,0.1247148037282235,0.43410714285714347,1.3710262139197473,0.07437003816917082,-1.0343640029344994
68.36473746,68.36473746,881.5351812,885.7142857,58.20092574,70.3182095,70.30280372,54,22,0.818181818,0.333333333,0.066022238,3387.347757,342.8571429,2.9e-05,0.000161736,0.000190706,0.179122608,0.151911774,0.848087701,0.9375,4.371772304,0.002061708,0.00227802,214.8317484,8.512991008,7.196695361,0.515366227,0.032584019,24634716.39,3171.928393,1262.873543,656.390227,606.569239,0.393967162,0.505507824,0.411232188,1.316385994,2.941529036,1.047405595,0.347222114,0.676678591,0.119207676,4.340838358,0.029583833,0.361231887,0.017957905,48.64355498,-0.019907148,0.071453471,1.421955786,24.15261036,-53.85008221,64.63989151,68.8485078,0.880777311,0.080311307,32.43862537,5.126083976,583.3485871,24.19443212,-0.481221498,-1.004029252,40.44030311,24585562.91,1.3671875,635.0172484,2.073478837,0.03726318,0.134352575,1.000861166,1.858409406,1.450020918,0.005105599,583.3485871,1.41e-05,1.133333333,1.15,2,4,20.845752891957524,2.3746264660390803,0.1247148037282235,0.43410714285714347,1.3710262139197473,0.07437003816917082,-1.0343640029344994
67.1713207,67.1713207,897.4891775,897.8571429,60.65763112,73.63621387,73.63537422,49,22,0.753846154,0.338461538,0.067585919,3679.348213,348.5714286,9.45e-05,0.000736779,0.000831254,0.128228277,0.11365455,0.886345329,0.3125,4.019321275,0.001288453,0.00168644,207.2047194,9.077110289,7.475585483,0.490956864,0.03460405,22433755.25,2831.289972,1264.609544,616.4050675,425.1993564,0.405740725,0.512477933,0.41604875,1.317917203,2.957436832,1.046821409,0.359589743,0.676907163,0.121756506,4.23679821,0.029878309,0.365656285,0.017782558,48.23757308,-0.019456657,0.070429585,1.311239888,23.07469677,-53.85008221,64.63989151,67.23556304,0.896753247,0.060936591,30.74488067,6.449431559,532.4416309,23.11192292,-0.493853318,-0.90818021,37.24257872,22434761.2,1.3671875,585.2757629,2.091786379,0.037382437,0.133116594,1.001165022,1.889435415,1.452195118,0.004960326,532.4416309,1.25e-05,1.116666667,1.116666667,2,4,20.845752891957524,2.3746264660390803,0.1247148037282235,0.43410714285714347,1.3710262139197473,0.07437003816917082,-1.0343640029344994
73.62121949,73.62121949,859.8757764,894.2857143,143.9717879,170.8015494,170.7829435,55,34,0.808823529,0.5,0.167433241,20727.87572,738.5714286,0.000825786,0.001295002,0.002120788,0.637671902,0.389377079,0.610622874,1.0,4.525782216,0.006128216,0.005401976,203.4605027,9.635469163,7.58633134,0.50408416,0.035638691,17563610.43,1706.0151,1330.252517,551.8523207,399.3487002,0.416054779,0.518186182,0.416179222,1.320646169,2.929180191,1.046894865,0.369782466,0.678389264,0.123774195,4.173020608,0.029622158,0.36837265,0.018477143,49.37364453,-0.019178452,0.069925837,1.224415707,20.39703778,-49.75447162,35.36985566,67.14201935,0.899502165,0.070156417,25.77914351,5.244989887,416.0391503,20.43375502,-0.556801448,-0.824594076,32.88263501,17536610.45,1.3671875,461.1396354,2.105346333,0.037898704,0.137902898,1.001043807,1.841865454,1.453000498,0.004889623,416.0391503,7.24e-06,1.166666667,1.116666667,2,4,20.845752891957524,2.3746264660390803,0.1247148037282235,0.43410714285714347,1.3710262139197473,0.07437003816917082,-1.0343640029344994
90.14269095,90.14269095,761.1172161,845.0,220.1756645,256.5722901,256.5681037,64,51,0.831168831,0.662337662,0.289279575,48477.32326,748.5714286,0.00395764,0.006605101,0.010562741,0.599179277,0.37467924,0.62532075,0.0625,4.356128336,0.024930077,0.025140085,217.7205461,8.653726839,7.47906217,0.505255853,0.03769389,14930500.37,2453.817726,983.016848,492.4930558,349.8580877,0.412834586,0.513550438,0.420340347,1.315425196,2.960309388,1.046870752,0.363862699,0.678902276,0.121600412,4.239226343,0.032603923,0.376324614,0.018710868,47.91190757,-0.018633088,0.07234126,0.934389418,18.8165518,-49.62198841,58.73842798,67.68923898,0.92210989,0.291092794,24.06477794,6.941651521,354.0626217,18.8397374,-0.50462179,-0.597958792,28.93210407,14907299.62,1.3671875,379.2605906,2.128780839,0.040082651,0.139199094,1.000969393,1.838446669,1.44623471,0.005233258,354.0626217,1.44e-05,1.316666667,1.1,2,4,20.845752891957524,2.3746264660390803,0.1247148037282235,0.43410714285714347,1.3710262139197473,0.07437003816917082,-1.0343640029344994
132.2286031,132.2286031,516.447205,472.8571429,194.5378675,318.2476973,318.2473776,112,107,0.98245614,0.938596491,0.376684907,37844.98191,721.4285714,0.001163441,0.002001714,0.003165155,0.581222595,0.367577972,0.632421996,2.0,3.503497513,0.016377796,0.035797987,673.0561356,25.99562181,14.93281293,3.538822514,1.612835921,6795076.277,44323.22456,10459.13433,5765.311671,2267.197499,0.249920272,0.631281774,0.444017436,1.193773688,2.633962467,1.044203944,0.146507067,0.720363364,0.166393692,7.007772969,0.060543365,0.40782687,0.0637468,18.62553824,-0.065981401,0.112970402,2.389306146,12.51042863,-26.271432,27.03925271,100.3576673,0.703226891,0.248215543,19.46322483,6.109798652,156.5108244,12.73654617,-0.508171595,-0.658593721,18.71335701,6813223.546,0.68359375,163.1295088,3.196739956,0.109679147,0.357940871,1.031058727,1.990683597,1.249367696,0.012762312,156.5108244,3.71e-05,1.933333333,1.433333333,3,1,15.540890566333966,4.822511952436296,0.2479042407254237,1.0421428571428573,2.3560122308093967,0.13188284348091647,-0.016481423246514915
125.227379,125.227379,546.8676278,512.8571429,203.7954301,294.3500469,294.3499506,104,97,0.962962963,0.898148148,0.372659524,41532.57731,765.7142857,0.00070409,0.001940517,0.002644606,0.362836161,0.266236083,0.733763879,1.6875,4.611862613,0.017927802,0.014693442,679.1160835,26.07408505,15.64859534,3.802614609,1.737078761,8622721.499,38372.9724,7476.340355,5294.819181,2523.030787,0.245930138,0.639132758,0.448320619,1.189403491,2.632848208,1.047245982,0.138787048,0.720068974,0.168771606,6.907203207,0.065899919,0.407886312,0.055106311,22.01393616,-0.065217644,0.114125581,3.35287611,13.92521123,-26.27126594,27.05386898,99.05250984,0.709081633,0.250833464,22.50129014,5.119810055,193.9115078,14.32317304,-0.396338787,-0.874463316,21.70065789,8616438.014,1.3671875,193.3862941,3.166402298,0.095144919,0.319116588,1.026539101,2.020140025,1.275492163,0.013024648,193.9115078,1.52e-05,1.833333333,1.416666667,3,1,15.540890566333966,4.822511952436296,0.2479042407254237,1.0421428571428573,2.3560122308093967,0.13188284348091647,-0.016481423246514915
125.3559114,125.3559114,559.1239892,517.1428571,228.0624024,321.2368287,321.2358257,98,90,0.933333333,0.857142857,0.407892358,52012.45941,1007.142857,0.003450244,0.0055474,0.008997644,0.621957041,0.383460859,0.616539129,0.6875,4.737283073,0.029031258,0.019031585,679.4108942,24.17048048,14.21974667,3.191875383,1.313083483,8289199.058,17954.23131,4980.480388,3148.726577,1970.772154,0.224095952,0.61118763,0.435834237,1.184356667,2.581146877,1.056069077,0.122365901,0.710950782,0.156889887,7.16532189,0.05197616,0.404811368,0.04576971,26.77843076,-0.064159864,0.114373129,3.255158491,13.65852399,-26.27126594,27.05386898,93.28716517,0.758824593,0.266948441,20.93634313,5.765655561,186.5552776,14.04105888,-0.401829442,-0.815866277,20.52396821,8280356.045,1.3671875,186.4012766,2.835641838,0.073723037,0.277686553,1.021916605,1.975807095,1.329908862,0.013081213,186.5552776,2.43e-05,1.783333333,1.333333333,3,1,15.540890566333966,4.822511952436296,0.2479042407254237,1.0421428571428573,2.3560122308093967,0.13188284348091647,-0.016481423246514915
131.3797532,131.3797532,534.6074646,478.5714286,225.5468063,357.7030412,357.6922443,107,104,0.972727273,0.945454545,0.421892363,50871.36182,1007.142857,0.000406498,0.001505111,0.001911609,0.270078041,0.212646808,0.78735314,2.0,3.489615862,0.021534371,0.048643378,732.3050334,18.79736006,11.8957846,1.842707816,0.534930823,5876710.066,6926.024735,2566.791755,1263.503823,881.2403993,0.195137461,0.51318519,0.39639361,1.167595193,2.553450951,1.07580681,0.103289993,0.699611576,0.122879538,7.68383565,0.029378637,0.398950517,0.035866274,34.49382769,-0.067296456,0.116956061,1.977715131,11.61530316,-26.27028613,27.05185023,70.06684337,0.931071429,0.227480376,15.7436606,4.526709364,134.9152675,11.78247107,-0.683021519,-0.45362523,16.62066086,5830718.235,0.68359375,148.366794,2.353385563,0.04957161,0.232704703,1.0108595,1.775043621,1.400179004,0.01367872,134.9152675,4.93e-05,1.866666667,1.083333333,3,1,15.540890566333966,4.822511952436296,0.2479042407254237,1.0421428571428573,2.3560122308093967,0.13188284348091647,-0.016481423246514915
136.551752,136.551752,497.8571429,420.7142857,188.6443762,307.8778999,307.8778996,118,116,0.991596639,0.974789916,0.378912664,35586.70068,772.8571429,0.000714859,0.003455199,0.004170058,0.206893586,0.171426536,0.82857344,1.9375,3.920656229,0.020238241,0.034466008,700.0498971,21.33364181,13.40590033,2.793195793,0.87617641,6380009.815,7714.721328,3475.61742,1787.403431,1008.177283,0.207682139,0.565742516,0.403860767,1.175268788,2.544511843,1.049367392,0.108241542,0.70475514,0.139325335,7.501110787,0.03434656,0.398683564,0.039148905,31.54917862,-0.063804886,0.116070277,3.054415642,11.93427112,-26.27096891,27.04702281,74.12666649,0.904637363,0.25145742,17.04893292,4.514431587,142.4268272,12.31893998,-0.686638522,-0.409365361,16.72448298,6373763.85,0.68359375,154.2126259,2.485861962,0.055149297,0.245651001,1.013497673,1.89854766,1.377816285,0.013472309,142.4268272,6.29e-05,2.016666667,1.1,3,1,15.540890566333966,4.822511952436296,0.2479042407254237,1.0421428571428573,2.3560122308093967,0.13188284348091647,-0.016481423246514915
142.8606203,142.8606203,462.7242525,392.8571429,157.227043,238.1582246,238.1558644,124,110,0.96875,0.859375,0.339785611,24720.34304,678.5714286,0.00070194,0.003425303,0.004127243,0.204927851,0.17007479,0.829925186,2.0,4.382911825,0.010966742,0.012434145,682.5801132,24.53239204,16.02423197,3.905948508,1.582291581,7989918.839,18322.13516,5900.995873,2503.323868,2431.280324,0.257607215,0.633646299,0.429732148,1.200477844,2.501115406,1.011621647,0.147070587,0.717983417,0.163965392,6.874543758,0.053189956,0.411273205,0.046106187,26.61638848,-0.061601101,0.116069502,3.25866184,13.42617059,-26.27136462,27.05047265,96.60357465,0.740071429,0.285923575,20.91102635,5.180307366,180.2620568,13.81596663,-0.426817773,-0.805223283,20.79401483,8016999.219,1.3671875,180.039028,2.921063788,0.07229951,0.27900817,1.0159806,2.193248999,1.327433923,0.013472129,180.2620568,3.58e-05,2.166666667,1.35,3,1,15.540890566333966,4.822511952436296,0.2479042407254237,1.0421428571428573,2.3560122308093967,0.13188284348091647,-0.016481423246514915
144.4528923,144.4528923,453.1208791,391.4285714,145.6458345,211.0681283,211.0329426,119,101,0.92248062,0.782945736,0.321428213,21212.70909,535.7142857,0.000137788,0.002997639,0.003135427,0.045965401,0.043945431,0.956054537,1.8125,4.750098283,0.010121649,0.006495897,744.0364542,29.15157086,16.28398781,3.684940491,1.555214256,8317567.173,18616.33392,7148.500021,3115.734551,3128.499657,0.27716354,0.613812737,0.42665547,1.198404296,2.394714674,1.00562178,0.166251677,0.7212721,0.157148279,6.92507222,0.067962694,0.415000595,0.050627612,23.56388812,-0.065213316,0.120074943,1.799839306,13.95200749,-26.27136462,27.0514373,101.3695859,0.680755337,0.249101396,22.00946573,5.726961724,194.6585129,14.06762007,-0.234473851,-0.958454508,21.98264693,8311713.247,1.3671875,183.5771675,3.11347808,0.086916439,0.304104596,1.018656869,2.034074533,1.294438999,0.014417992,194.6585129,3.59e-05,2.183333333,1.466666667,3,1,15.540890566333966,4.822511952436296,0.2479042407254237,1.0421428571428573,2.3560122308093967,0.13188284348091647,-0.016481423246514915
139.9776203,139.9776203,467.65625,413.5714286,147.4144441,225.9328156,225.9261745,116,109,0.913385827,0.858267717,0.31521966,21731.01832,557.1428571,0.000755444,0.002255791,0.003011235,0.334890788,0.250875046,0.749124921,1.9375,4.801474011,0.01177483,0.006964041,678.7679849,30.30721108,14.2623476,3.36496776,1.45555629,8143793.864,17367.40767,5801.081946,2756.222683,2437.65258,0.25768043,0.613963426,0.429005406,1.183363981,2.64215846,1.021669341,0.146145635,0.716196164,0.155324067,6.917908906,0.060037817,0.396659683,0.047899053,24.39816135,-0.059869244,0.11715104,2.363533686,13.73362883,-26.26819472,27.0514373,91.97796284,0.726585366,0.224359245,22.23788882,5.69932093,188.6125608,13.93552483,-0.320678127,-0.898737111,21.15336741,8156351.796,1.3671875,182.3271194,3.014722966,0.080529305,0.290348931,1.020082798,2.078687836,1.300845011,0.013724366,188.6125608,6.35e-05,2.15,1.383333333,3,1,15.540890566333966,4.822511952436296,0.2479042407254237,1.0421428571428573,2.3560122308093967,0.13188284348091647,-0.016481423246514915
135.3268199,135.3268199,493.6953955,484.2857143,170.9646092,285.1832565,285.1742863,117,113,0.975,0.941666667,0.346295734,29228.8976,734.2857143,0.000126481,0.002681193,0.002807675,0.047173501,0.04504841,0.954951554,1.9375,3.743853467,0.009981702,0.018697827,692.5373724,23.2745372,11.57975882,2.457137551,0.964982487,7417900.006,13901.49996,3429.317283,1769.324005,1469.797802,0.22157967,0.557252821,0.40277159,1.168840963,2.592404559,1.048564593,0.119257659,0.698365815,0.135628175,7.467675669,0.040295284,0.39327144,0.03966675,30.1094812,-0.061987082,0.116265226,1.91946362,13.15354021,-26.27034503,27.04402135,81.9473642,0.822777778,0.239931477,19.78716998,6.079502885,173.0156199,13.29285374,-0.454428542,-0.787184115,20.21226315,7421398.342,0.68359375,183.7172356,2.642518956,0.059846025,0.252380459,1.015081724,1.963544602,1.353054496,0.013517603,173.0156199,5.39e-05,2.033333333,1.216666667,3,1,15.540890566333966,4.822511952436296,0.2479042407254237,1.0421428571428573,2.3560122308093967,0.13188284348091647,-0.016481423246514915
135.1121932,135.1121932,502.2033898,427.8571429,187.6988989,308.7501461,308.7299808,114,106,0.974358974,0.905982906,0.373750761,35230.87665,730.0,0.000867964,0.002788766,0.00365673,0.311236031,0.237360798,0.762639175,2.0,4.293074727,0.018706607,0.025568433,744.2542057,20.96745472,10.66560757,2.68608695,0.942687653,6867763.505,53367.10237,13852.83809,4573.315588,3453.724468,0.221098334,0.550579296,0.401449035,1.165945403,2.322218457,1.061808844,0.118519497,0.684457757,0.13336775,7.996454463,0.058624714,0.413951076,0.063869023,18.64421885,-0.065255162,0.11885174,1.006739732,12.79830084,-26.27096132,27.05151376,108.2730071,0.676396104,0.279916001,18.42387469,6.145433594,163.7965044,12.83783585,-0.452909428,-0.833090626,20.6097655,6922021.228,0.68359375,174.5328147,3.082541924,0.105196155,0.362326267,1.042202531,2.067626964,1.259187486,0.014125736,163.7965044,6.32e-05,1.983333333,1.483333333,3,1,15.540890566333966,4.822511952436296,0.2479042407254237,1.0421428571428573,2.3560122308093967,0.13188284348091647,-0.016481423246514915
132.4596767,132.4596767,508.7667888,468.5714286,183.2676164,310.3591765,310.3584902,110,105,0.948275862,0.905172414,0.3602193,33587.01922,720.0,0.001235156,0.000833786,0.002068942,1.481383218,0.596998967,0.403000985,1.9375,4.546898095,0.014475232,0.013712742,771.0134962,23.82041393,11.05129514,2.85877653,1.081941226,6838596.523,63221.26676,15007.06397,4828.229405,3909.014406,0.233742971,0.562559726,0.406497061,1.17382343,2.311063933,1.057383531,0.130164503,0.680340168,0.136804019,7.967432748,0.077021262,0.420544617,0.068019589,17.36762191,-0.065089005,0.12147861,1.202819851,12.76076564,-26.27134669,27.05151376,119.3113694,0.606097202,0.271970664,19.67387046,6.623084411,162.8371397,12.81732871,-0.283799137,-0.755390536,19.34136918,6899924.442,1.3671875,166.1472158,3.374354164,0.121414516,0.37885426,1.041714835,2.112748963,1.245583677,0.014757053,162.8371397,5.81e-05,1.966666667,1.633333333,3,1,15.540890566333966,4.822511952436296,0.2479042407254237,1.0421428571428573,2.3560122308093967,0.13188284348091647,-0.016481423246514915
130.4308039,130.4308039,516.1614907,481.4285714,184.4163305,305.6404649,305.6356433,106,101,0.929824561,0.885964912,0.357284171,34009.38297,744.2857143,0.000419769,0.002225631,0.0026454,0.18860698,0.158679011,0.841320951,1.8125,4.290288172,0.021468011,0.026924308,827.4304369,23.94011235,11.16189319,2.66634251,0.881420467,5804880.123,26449.85153,4995.853252,2542.728472,1987.175321,0.246363468,0.531451996,0.394891946,1.186227125,2.466161547,1.056412698,0.146181318,0.686117165,0.129006809,7.925077959,0.062306321,0.416432572,0.053177012,21.59077875,-0.072537188,0.123567026,0.922473918,11.74953167,-26.27134669,27.04807128,106.6337981,0.685238095,0.30127438,18.63128424,7.483552506,138.0514944,11.78568846,-0.197351355,-0.476357163,16.10068425,5833903.004,0.68359375,140.4626114,3.157028016,0.095345781,0.316598867,1.02305128,2.076319628,1.288449922,0.01526881,138.0514944,2.82e-05,1.933333333,1.466666667,3,1,15.540890566333966,4.822511952436296,0.2479042407254237,1.0421428571428573,2.3560122308093967,0.13188284348091647,-0.016481423246514915
131.9695423,131.9695423,513.2049689,480.0,189.206121,313.1162738,313.0751402,107,101,0.938596491,0.885964912,0.368675544,35798.95621,744.2857143,0.000667709,0.002713953,0.003381662,0.246028305,0.197450013,0.802549957,1.8125,4.759402398,0.012806882,0.008265648,789.5120861,21.81869129,11.55698086,2.690386073,0.901448565,5743593.649,34604.63241,5799.718391,2668.20941,1997.348282,0.253786794,0.541846317,0.39944804,1.191022874,2.326017154,1.057314843,0.152251664,0.70855056,0.132751952,7.86472944,0.059036144,0.41105202,0.054152337,20.92347311,-0.070862071,0.120042567,0.573807138,11.71162671,-26.27136615,27.05076759,101.8569887,0.731975309,0.350257046,18.16458835,7.603336064,137.1622002,11.72567503,-0.150588067,-0.488765129,16.24097775,5774641.103,0.68359375,141.4061624,3.178158547,0.094521943,0.321269171,1.024707991,2.023616101,1.286788414,0.014410218,137.1622002,2.55e-05,1.933333333,1.366666667,3,1,15.540890566333966,4.822511952436296,0.2479042407254237,1.0421428571428573,2.3560122308093967,0.13188284348091647,-0.016481423246514915
131.5308731,131.5308731,514.1133005,493.5714286,181.9709084,333.2248389,333.2248306,113,111,0.982608696,0.965217391,0.353950984,33113.41151,665.7142857,7.88e-05,0.000684635,0.000763391,0.115034542,0.103166797,0.896833072,2.0,3.247133806,0.018520365,0.041196501,731.5982998,17.58427357,10.7237376,1.636315188,0.370138988,4177867.755,8061.591368,2662.572261,987.3639141,701.4557188,0.203960216,0.481729885,0.381448629,1.15861757,2.516186005,1.074988767,0.112191988,0.686487444,0.113139255,7.761262442,0.037123166,0.397964583,0.040559309,27.11083749,-0.067596972,0.116482512,-0.100383245,9.986992214,-26.27136615,27.05076759,79.52844178,0.874138655,0.272817998,13.29142235,6.871974773,99.74001348,9.987496697,-0.209488258,-0.141146706,14.00968041,4189503.792,0.68359375,109.4794125,2.66676428,0.060407305,0.258562595,1.01531886,1.950592538,1.34356758,0.013568176,99.74001348,2.31e-05,1.95,1.15,3,1,15.540890566333966,4.822511952436296,0.2479042407254237,1.0421428571428573,2.3560122308093967,0.13188284348091647,-0.016481423246514915
133.8216401,133.8216401,503.5775336,375.7142857,176.1677665,322.6287937,322.6287937,114,112,0.982758621,0.965517241,0.349832458,31035.08194,615.7142857,0.000453614,0.000636382,0.001089996,0.712801404,0.416161151,0.583838757,1.9375,3.378734158,0.012289561,0.027092987,753.2776246,17.71958075,9.785139056,1.49752497,0.261810212,2495636.899,613.2325932,355.2384765,218.0479801,161.6041784,0.17838217,0.445405369,0.371388744,1.144000096,2.362921573,1.076126527,0.092562629,0.669674232,0.104035246,7.010132127,0.028536007,0.39602583,0.022430938,51.17140778,-0.069215465,0.117448734,-0.401954982,7.695982285,-26.22554294,26.50682193,65.380969,0.977,0.205165057,9.671713496,3.832784598,59.22814333,7.706472029,-0.357835326,-0.518956166,12.39405472,2494367.868,0.68359375,65.56465577,2.098683361,0.036235206,0.16268773,1.001681603,1.808633628,1.47820188,0.013794205,59.22814333,9.27e-05,1.966666667,1.016666667,3,1,15.540890566333966,4.822511952436296,0.2479042407254237,1.0421428571428573,2.3560122308093967,0.13188284348091647,-0.016481423246514915
133.7875913,133.7875913,507.7899878,414.2857143,184.5827741,333.0196859,333.019685,109,106,0.939655172,0.913793103,0.363502193,34070.80048,615.7142857,0.000584579,0.000994004,0.001578583,0.588104867,0.37031866,0.629681276,1.9375,3.306755112,0.019203147,0.044374714,767.125576,19.19041983,9.414176672,1.892902627,0.487482838,4267842.633,2968.970916,1285.132592,625.4941428,499.9264474,0.199032006,0.48142434,0.379671977,1.162829015,2.511742455,1.077940347,0.109285197,0.697754011,0.112463953,7.694918766,0.033843914,0.399674797,0.03043236,38.0037356,-0.067681004,0.120011497,0.662476985,10.06421542,-26.27029777,27.04515965,87.57712693,0.851449275,0.345442246,13.76311229,7.090487369,101.288432,10.08599563,-0.187294471,-0.199915513,13.80370313,4272546.927,0.68359375,101.7254476,2.502968142,0.047753635,0.206923447,1.006660568,1.904077111,1.402302887,0.014402759,101.288432,8e-05,1.966666667,1.166666667,3,1,15.540890566333966,4.822511952436296,0.2479042407254237,1.0421428571428573,2.3560122308093967,0.13188284348091647,-0.016481423246514915
134.8227207,134.8227207,497.0595238,417.8571429,171.4664934,307.8486823,307.8486785,110,109,0.924369748,0.915966387,0.34496169,29400.75836,561.4285714,0.000364735,0.001402056,0.001766791,0.260142999,0.206439269,0.793560675,1.875,4.046351923,0.013494166,0.020670313,785.7401532,19.84826303,10.43581186,2.009337984,0.458803034,6746457.931,3152.827401,1401.187099,614.5986614,470.1849187,0.215640745,0.483425407,0.380356012,1.175295323,2.597485941,1.079647147,0.120413331,0.716597313,0.111556038,7.73965902,0.038532853,0.394748124,0.027015168,39.25042629,-0.065281847,0.123312664,2.405393066,12.43450291,-26.27130036,27.04515965,84.85010293,0.882725275,0.432715766,18.33807075,5.402160272,154.6168625,12.66502185,-0.462810818,-0.682481755,19.03163663,6736916.69,0.68359375,165.838951,2.449762778,0.049435558,0.185752525,1.008629321,1.884357833,1.40290665,0.015206013,154.6168625,3.96e-05,2.016666667,1.1,3,1,15.540890566333966,4.822511952436296,0.2479042407254237,1.0421428571428573,2.3560122308093967,0.13188284348091647,-0.016481423246514915
137.6029882,137.6029882,481.2543554,410.0,159.7033073,272.6411654,272.6119242,115,111,0.942622951,0.909836066,0.331848025,25505.14635,688.5714286,0.000192046,0.00155778,0.001749826,0.123281812,0.109751454,0.890248489,2.0,4.140733966,0.014001353,0.020865746,820.5744358,23.98989832,11.41335416,2.525658711,0.631240897,8609652.448,10968.76561,4882.265985,2469.512715,1550.09075,0.235890029,0.511319448,0.394232967,1.177319385,2.685541809,1.061629204,0.130402389,0.719425473,0.119737855,7.748284535,0.038593401,0.381737161,0.038780256,31.08770625,-0.066130309,0.1267846,3.114607804,13.98881877,-26.27130036,27.0525202,81.89611423,0.834205231,0.243926735,20.744733,3.916733138,195.6870507,14.33135836,-0.469949098,-0.989424705,23.49786852,8626288.963,1.3671875,209.07119,2.471343259,0.05417939,0.245419135,1.015615479,2.101975917,1.360495718,0.016074335,195.6870507,3.79e-05,2.066666667,1.2,3,1,15.540890566333966,4.822511952436296,0.2479042407254237,1.0421428571428573,2.3560122308093967,0.13188284348091647,-0.016481423246514915
136.2954491,136.2954491,487.2255018,414.2857143,164.2629005,280.675176,280.6751737,117,113,0.975,0.941666667,0.337139374,26982.30047,688.5714286,0.000112194,0.001955713,0.002067907,0.057367207,0.054254763,0.945745189,1.875,4.222524063,0.010413008,0.013431826,837.937529,27.85897315,10.16109542,2.31864997,0.687940164,8753163.622,17516.87613,5208.645598,2700.913208,1798.684589,0.237554227,0.510647305,0.392489658,1.175077831,2.417942461,1.059469236,0.136847164,0.719996142,0.120404972,7.818140563,0.039728331,0.386135889,0.039937438,30.45083578,-0.068970257,0.126727802,2.989712226,14.14475936,-26.27037266,27.0525202,84.07729772,0.815694444,0.240280742,21.30956934,3.889490017,200.0742173,14.45726795,-0.410794707,-1.031669182,24.16194211,8778529.052,1.3671875,211.8447553,2.493200554,0.055491337,0.251430082,1.015154091,2.130044087,1.350082248,0.016059936,200.0742173,4.52e-05,2.033333333,1.216666667,3,1,15.540890566333966,4.822511952436296,0.2479042407254237,1.0421428571428573,2.3560122308093967,0.13188284348091647,-0.016481423246514915
130.4661123,130.4661123,514.5566502,480.7142857,175.4170575,316.9535835,316.9535833,114,113,0.991304348,0.982608696,0.340909125,30771.14405,590.0,0.000154799,0.000889626,0.001044425,0.174004413,0.148214445,0.851785459,1.9375,4.415125854,0.012806692,0.013204839,832.561295,19.93780222,9.899851919,2.201951674,0.808036895,7082897.362,28880.50538,6653.301535,3657.063342,1945.217983,0.212972884,0.506313046,0.385424174,1.164357571,2.517676457,1.070467849,0.119030861,0.697045683,0.119636135,8.243732174,0.050704855,0.409389661,0.04854726,24.43469853,-0.071255183,0.124585008,2.359207301,12.79551308,-26.26086643,27.05085374,86.4460109,0.811330724,0.263850896,19.58010328,5.344163183,163.725155,13.01118804,-0.324148485,-0.84590995,20.1563186,7110222.592,0.68359375,174.654825,2.688682146,0.072157965,0.29282921,1.019336903,1.981871838,1.312743341,0.015521424,163.725155,4.65e-05,1.95,1.233333333,3,1,15.540890566333966,4.822511952436296,0.2479042407254237,1.0421428571428573,2.3560122308093967,0.13188284348091647,-0.016481423246514915
128.9299356,128.9299356,525.0063211,515.7142857,181.8973829,334.9536814,334.9536811,111,110,0.991071429,0.982142857,0.346467034,33086.6579,662.8571429,0.000277034,0.000314686,0.00059172,0.880352453,0.468184808,0.531815023,2.0,2.834673279,0.017245586,0.045257088,800.7510248,19.15252325,11.02502286,2.190802116,0.780658366,4606279.575,26054.07193,6455.963333,3559.713454,1721.423204,0.18891928,0.50339137,0.384289598,1.150085815,2.448276356,1.077405562,0.096915393,0.656037371,0.11984708,8.151066304,0.049293795,0.420981698,0.056643703,21.19856287,-0.071895,0.121169771,0.732299023,10.48154122,-26.26086643,27.05067703,87.89783015,0.818293651,0.289622148,15.93600851,6.891212472,109.8627063,10.50709133,-0.087589875,-0.437975906,14.65973179,4636756.662,0.68359375,113.4528443,2.909345886,0.076974208,0.331965577,1.021163823,1.940609625,1.28859698,0.014682114,109.8627063,3.37e-05,1.9,1.216666667,3,1,15.540890566333966,4.822511952436296,0.2479042407254237,1.0421428571428573,2.3560122308093967,0.13188284348091647,-0.016481423246514915
134.6583178,134.6583178,498.8377724,392.1428571,173.3864137,316.5619095,316.561901,116,115,0.991452991,0.982905983,0.347580763,30062.84847,648.5714286,0.00033942,0.001073552,0.001412971,0.316165188,0.24021695,0.759782979,1.9375,3.784670146,0.015806554,0.030702389,804.1711415,15.92382306,11.05743299,1.622015218,0.288057088,2452510.315,1434.205305,669.5448753,421.5305549,229.7829939,0.17470505,0.441616834,0.372370181,1.138921954,2.399194153,1.087099,0.088720966,0.645615327,0.103635777,6.974637348,0.036853776,0.417068046,0.028713443,40.45312179,-0.072908028,0.120360687,-0.369698784,7.629266116,-26.14822186,27.04314028,80.71635623,0.862878151,0.254133357,9.984941859,4.393053415,58.20570146,7.638218291,-0.400780134,-0.214363783,10.79772506,2450379.903,0.68359375,65.44547478,2.329136574,0.04758832,0.197865739,1.004602438,1.780294814,1.414212378,0.014486695,58.20570146,3.72e-05,1.983333333,1.15,3,1,15.540890566333966,4.822511952436296,0.2479042407254237,1.0421428571428573,2.3560122308093967,0.13188284348091647,-0.016481423246514915
132.9475707,132.9475707,524.3362832,355.7142857,217.9668584,347.04004,347.0400285,108,104,0.964285714,0.928571429,0.415700506,47509.55135,841.4285714,0.001481435,0.004589113,0.006070548,0.32281514,0.244036472,0.755963511,1.9375,4.303751262,0.021249562,0.025537035,789.4210235,16.9396057,10.77583648,1.602462416,0.270950988,1889403.494,1345.882901,485.4322344,284.1334981,333.8167317,0.175860719,0.446935873,0.374431669,1.142549264,2.426500242,1.090761508,0.089223555,0.657098014,0.104126222,6.951825241,0.038617627,0.415416179,0.031677482,38.32334888,-0.069795993,0.120947652,-0.271341701,6.704392011,-26.04024997,27.0408267,80.76953359,0.869348739,0.281344038,8.873877585,4.006790737,44.94887224,6.709880667,-0.390656497,-0.206056444,9.74189542,1890944.94,0.68359375,50.03914166,2.337315701,0.048940707,0.213626597,1.004611264,1.772180172,1.409608647,0.014628334,44.94887224,4.7e-05,1.9,1.15,3,1,15.540890566333966,4.822511952436296,0.2479042407254237,1.0421428571428573,2.3560122308093967,0.13188284348091647,-0.016481423246514915
127.7173112,127.7173112,553.5846561,514.2857143,230.4826261,373.6259332,373.6121928,104,101,0.971962617,0.943925234,0.416345763,53122.24094,840.0,0.000276842,0.007204969,0.007481812,0.03842382,0.037002059,0.962997927,1.9375,4.036634099,0.025656673,0.040338614,768.5123926,17.58271354,10.07498032,1.553545327,0.249342411,1863501.797,1425.264982,430.2697899,231.6944963,271.0851865,0.173533791,0.446862841,0.371640321,1.14500897,2.393457672,1.095628644,0.085071745,0.657906856,0.103334273,7.016075811,0.035170385,0.410235454,0.029710573,40.11746216,-0.067381577,0.120227149,-0.34477494,6.650786079,-26.04024997,27.0408267,72.75604564,0.933310658,0.252482052,8.675813078,4.020283179,44.23295547,6.659716603,-0.411448064,-0.294934439,10.15914402,1862776.66,0.68359375,49.64982602,2.298222493,0.046296661,0.203170669,1.004812195,1.736676369,1.418344529,0.014454567,44.23295547,2.74e-05,1.816666667,1.066666667,3,1,15.540890566333966,4.822511952436296,0.2479042407254237,1.0421428571428573,2.3560122308093967,0.13188284348091647,-0.016481423246514915
130.9193124,130.9193124,520.1614907,508.5714286,187.889579,341.7331461,341.7252824,114,112,1.0,0.98245614,0.361213935,35302.49389,658.5714286,0.000335775,0.000717854,0.001053629,0.467748331,0.318684287,0.681315618,1.9375,3.341955263,0.01759932,0.041180059,790.8837662,16.29294138,10.16702112,1.641955017,0.17046271,1841492.761,670.4143832,281.8326805,137.0295396,139.7602287,0.178884899,0.435421189,0.368822687,1.147940658,2.426583362,1.087315094,0.089860025,0.647306873,0.101776111,6.56952763,0.030873107,0.402641055,0.025013399,44.87571111,-0.070365565,0.120629204,-0.397652618,6.600960944,-26.21460145,23.65447155,72.42318924,0.933727679,0.222239531,7.934025942,2.841660214,43.57268538,6.612927717,-0.533170488,-0.293160218,10.08181827,1836694.145,0.68359375,49.11550447,2.128325172,0.041220524,0.177342966,1.003062986,1.763925791,1.42971241,0.014551405,43.57268538,4.81e-05,1.933333333,1.083333333,3,1,15.540890566333966,4.822511952436296,0.2479042407254237,1.0421428571428573,2.3560122308093967,0.13188284348091647,-0.016481423246514915
132.5764194,132.5764194,506.8159806,461.4285714,171.7398718,325.1052507,325.0931212,115,112,0.982905983,0.957264957,0.338860412,29494.58357,532.8571429,0.000394166,0.001045362,0.001439528,0.377061355,0.273815944,0.726183986,1.9375,3.301551845,0.013275131,0.032177674,782.7145777,16.07476891,11.14775313,1.949112852,0.278158911,3122963.381,3757.218174,1602.827393,1043.331714,362.8653611,0.18564376,0.453254433,0.372362912,1.155764209,2.482340218,1.084277772,0.09580818,0.667725407,0.106090467,6.991509252,0.030072949,0.393865578,0.035518764,35.12684573,-0.06983016,0.120049298,-0.315801621,8.623122575,-26.25485914,26.97328052,71.26227771,0.931897321,0.211074609,11.11960619,5.15958847,74.35824294,8.628903384,-0.479055927,-0.208410522,12.6813392,3127234.892,0.68359375,84.46288917,2.354675769,0.04531583,0.23332565,1.005820744,1.834503704,1.39886726,0.014411834,74.35824294,3.66e-05,1.983333333,1.083333333,3,1,15.540890566333966,4.822511952436296,0.2479042407254237,1.0421428571428573,2.3560122308093967,0.13188284348091647,-0.016481423246514915
130.8295752,130.8295752,515.5665025,535.0,178.3849646,329.7820796,329.7820607,113,113,0.982608696,0.982608696,0.345997973,31821.19561,637.1428571,0.000132933,0.000558441,0.000691375,0.238043503,0.19227394,0.807725915,1.9375,2.676389715,0.016474069,0.047469535,777.2756597,16.77474752,11.61295767,2.106533293,0.370989646,4166957.609,4948.022876,2035.715805,1243.089679,688.7488858,0.186549457,0.47643436,0.364566716,1.165339477,2.482694551,1.080200309,0.098795504,0.687976521,0.111521148,7.516675384,0.030743353,0.3864707,0.037016173,34.00225717,-0.06866424,0.120523114,-0.499879577,9.918128772,-26.25485914,26.97328052,67.25626391,0.952327189,0.178158829,13.56539693,5.152712861,98.36927833,9.930717896,-0.400399134,-0.661244899,15.71104807,4142004.633,0.68359375,113.1594847,2.345643506,0.046460943,0.240694762,1.008258607,1.760135379,1.392052555,0.014525821,98.36927833,5.44e-05,1.95,1.05,3,1,15.540890566333966,4.822511952436296,0.2479042407254237,1.0421428571428573,2.3560122308093967,0.13188284348091647,-0.016481423246514915
134.9015663,134.9015663,470.2362205,440.0,114.22647,152.4920407,152.4805653,100,84,0.793650794,0.666666667,0.242912955,13047.68645,537.1428571,0.000284296,0.000578279,0.000862575,0.49162332,0.329589457,0.670410427,1.9375,4.69594773,0.003397347,0.002432576,872.2203312,24.72231099,30.5278383,9.9652708,1.391309306,3803903.892,8259.294319,1593.403377,782.1653927,770.3945718,0.258378134,0.654646339,0.389431138,1.261738575,3.023953243,0.95954838,0.181484297,0.757256336,0.169717491,5.344264773,0.055333067,0.415050173,0.040888956,26.63631347,-0.057271615,0.138071755,0.676430028,9.484551017,-26.25169527,27.03433378,103.3995472,0.700302521,0.415797594,15.33685822,7.589607889,89.956708,9.508641627,-0.066136135,0.435489176,11.02636584,3797399.154,2.05078125,84.90173256,3.09513372,0.080126005,0.259615659,1.01042345,1.955070152,1.320684106,0.019063809,89.956708,1.6e-05,2.133333333,1.433333333,3,2,15.540890566333966,4.822511952436296,0.2479042407254237,1.0421428571428573,2.3560122308093967,0.13188284348091647,-0.016481423246514915
126.0734928,126.0734928,508.5103785,497.1428571,130.0595462,176.7700769,176.7665244,100,84,0.862068966,0.724137931,0.255765765,16915.48555,544.2857143,0.000376082,0.002180246,0.002556328,0.172495134,0.147117996,0.852881965,0.75,4.652809628,0.008606163,0.006531867,809.3302812,23.44036295,29.38881686,6.68499453,1.085108055,3813148.985,7923.909235,1235.059755,828.4636586,617.4669434,0.255808055,0.632741652,0.374442399,1.248641547,2.952534305,0.976981815,0.179309512,0.753683605,0.159657366,5.527417023,0.055720945,0.412810949,0.038839009,27.98983714,-0.051880281,0.13418972,0.342305161,9.490615505,-26.26410948,27.04715506,101.4677915,0.654897959,0.271309413,14.50538751,7.593558383,90.07178266,9.496786587,-0.069993377,0.03989539,12.35389788,3787936.13,2.05078125,81.31979052,2.884365887,0.075980738,0.249955855,1.010407336,1.8560319,1.335180563,0.018006881,90.07178266,8.76e-06,1.966666667,1.533333333,3,2,15.540890566333966,4.822511952436296,0.2479042407254237,1.0421428571428573,2.3560122308093967,0.13188284348091647,-0.016481423246514915
123.8544375,123.8544375,531.969112,518.5714286,163.0739885,209.5260576,209.5255066,102,89,0.927272727,0.809090909,0.306547852,26593.12572,761.4285714,0.000723936,0.001898312,0.002622248,0.381357851,0.276074625,0.723925336,0.6875,4.688906814,0.010261174,0.007933609,790.4260837,22.30820158,26.23874526,5.45322201,0.97846396,4857344.972,8511.75623,6358.267855,1578.288208,1119.241887,0.240180392,0.614995903,0.364470353,1.235549038,2.745111322,1.017290209,0.163204031,0.739522097,0.152982158,5.905809691,0.054893762,0.411895645,0.044673001,26.10562528,-0.053112709,0.130927587,0.499384447,10.73393428,-26.26410948,27.04715506,96.92563045,0.72151463,0.427719541,16.7392455,7.686199731,115.2173451,10.74554465,-0.035638916,-0.36762797,15.02251276,4849602.656,1.3671875,105.6437411,2.803448274,0.070787988,0.27830299,1.014261118,1.855043944,1.337413315,0.017142033,115.2173451,1.49e-05,1.866666667,1.4,3,2,15.540890566333966,4.822511952436296,0.2479042407254237,1.0421428571428573,2.3560122308093967,0.13188284348091647,-0.016481423246514915
131.1301568,131.1301568,505.8958838,468.5714286,166.641759,200.1032788,200.0823537,105,91,0.897435897,0.777777778,0.329399318,27769.47584,761.4285714,0.001611565,0.006802725,0.00841429,0.23689995,0.191527173,0.808472816,0.3125,4.620351881,0.017052223,0.013449026,793.8234891,26.59381297,24.52030196,5.602779264,0.938037989,3850489.985,12036.3112,5505.195306,1452.198715,922.6411625,0.244215917,0.611961052,0.371895881,1.246363655,2.540139296,1.032783629,0.164752172,0.742850457,0.152700651,5.92198737,0.051467669,0.411589711,0.048501416,22.90729785,-0.055463002,0.130937081,0.302352224,9.593262129,-26.26279864,27.04663578,92.49884287,0.847122449,0.606257097,15.85702719,8.324332339,92.03067829,9.598025586,0.032649752,0.321883687,11.11803741,3869127.996,1.3671875,88.24119944,3.040880843,0.082880695,0.295967569,1.017510884,2.013066692,1.304469746,0.017144519,92.03067829,1.19e-05,1.983333333,1.183333333,3,2,15.540890566333966,4.822511952436296,0.2479042407254237,1.0421428571428573,2.3560122308093967,0.13188284348091647,-0.016481423246514915
135.4422557,135.4422557,483.1939605,452.8571429,151.4891603,156.5111317,156.5036144,107,90,0.87704918,0.737704918,0.313516254,22948.9657,721.4285714,0.000848619,0.002054547,0.002903166,0.413044382,0.292308145,0.707691821,0.0625,4.657751159,0.006210856,0.004641149,790.9496982,26.38557706,24.39315689,6.161846522,1.004391909,3662584.514,6361.345002,1726.496125,816.8961534,687.280824,0.254147375,0.621063866,0.381044913,1.272290884,2.848134174,1.056570532,0.176336955,0.766604615,0.155832801,5.793985477,0.054616333,0.416549756,0.042730665,23.83756648,-0.054316861,0.131314978,-0.320240451,9.329948221,-26.26549829,27.04663578,97.31437869,0.755510204,0.423702754,14.12217638,8.568630873,87.0479338,9.335442558,-0.028379204,0.417165169,10.64115743,3660320.485,1.3671875,84.11876601,3.221179838,0.090227629,0.268085916,1.015539729,1.988766805,1.310403069,0.017243624,87.0479338,2.59e-05,2.066666667,1.3,3,2,15.540890566333966,4.822511952436296,0.2479042407254237,1.0421428571428573,2.3560122308093967,0.13188284348091647,-0.016481423246514915
127.7946656,127.7946656,524.5363409,492.1428571,179.9543688,191.4134756,191.4122582,105,89,0.92920354,0.787610619,0.343073215,32383.57485,728.5714286,0.003566184,0.005217669,0.008783854,0.683482219,0.405993132,0.594006856,0.125,4.405586277,0.015970313,0.016869446,716.2042455,22.93710166,22.15365302,5.03394895,0.884777631,4651901.848,9259.306314,1599.128394,914.8870879,896.5374028,0.239888452,0.611940913,0.368610708,1.263821501,2.780260499,1.0545754,0.16067953,0.767527009,0.151623622,5.952591529,0.053376358,0.41933853,0.039441716,28.27558251,-0.050487244,0.125313236,0.456578224,10.52523522,-26.26549829,27.04981329,95.32783969,0.744214286,0.341131289,16.23630019,7.732450873,110.7805763,10.5351336,-0.086917512,-0.210104175,13.88046875,4661539.681,1.3671875,103.5649807,2.99183724,0.073924781,0.253020728,1.011688425,1.99328076,1.35130479,0.015703407,110.7805763,1.49e-05,1.916666667,1.35,3,2,15.540890566333966,4.822511952436296,0.2479042407254237,1.0421428571428573,2.3560122308093967,0.13188284348091647,-0.016481423246514915
117.8838668,117.8838668,569.047619,577.1428571,184.7904459,215.2845767,215.2554049,98,79,0.942307692,0.759615385,0.324736349,34147.50891,728.5714286,0.000749776,0.008672639,0.009422415,0.08645304,0.079573655,0.920426334,0.1875,4.49900351,0.014726968,0.014189105,685.9555687,19.55238928,21.11373951,4.194801003,0.751481446,4481249.612,6935.903714,1156.880318,830.6773863,557.9450445,0.234690082,0.59047387,0.35954478,1.247516012,2.759375781,1.036925914,0.15511398,0.758326852,0.144171071,6.014587072,0.047599106,0.417696518,0.034790908,31.88879393,-0.049326658,0.122409699,0.436624197,10.27111811,-26.2659389,27.04981329,93.48986998,0.760274725,0.354154387,15.82925122,7.594772253,105.4958672,10.28039434,-0.10178109,-0.11914599,13.17503883,4438833.331,1.3671875,96.4488784,2.823515883,0.065472241,0.229745979,1.009039125,1.808825849,1.376082849,0.014984134,105.4958672,8.75e-06,1.766666667,1.316666667,3,2,15.540890566333966,4.822511952436296,0.2479042407254237,1.0421428571428573,2.3560122308093967,0.13188284348091647,-0.016481423246514915
122.8842411,122.8842411,554.9867725,564.2857143,197.9422195,260.5479562,260.5213275,97,84,0.906542056,0.785046729,0.356661148,39181.12227,797.1428571,0.002243649,0.005819118,0.008062767,0.385565121,0.278272825,0.721727162,0.875,4.765494592,0.022801987,0.013821639,684.0230153,18.90721443,18.2785376,3.571560298,0.55428328,2760696.632,1973.378262,473.8595828,318.3354983,193.2367543,0.206025364,0.554840028,0.340609544,1.225786049,2.366689654,1.047724576,0.127909038,0.746543912,0.132342068,6.137998908,0.036454509,0.418014105,0.028075409,35.74610341,-0.049378068,0.121318232,-0.248343397,8.105560779,-26.27040391,26.98714911,86.10503308,0.829215292,0.473400533,11.44667214,7.530265101,65.70011555,8.10936434,-0.258530152,0.942907763,8.746940216,2761995.18,1.3671875,59.37586968,2.709051625,0.055475391,0.193708595,1.006724734,1.84611375,1.41700404,0.014718114,65.70011555,9.36e-06,1.816666667,1.2,3,2,15.540890566333966,4.822511952436296,0.2479042407254237,1.0421428571428573,2.3560122308093967,0.13188284348091647,-0.016481423246514915
130.1237207,130.1237207,515.2919255,500.0,177.465342,228.7768109,228.7768078,100,82,0.877192982,0.719298246,0.344397677,31493.94761,798.5714286,0.000485876,0.00364186,0.004127736,0.133414174,0.117709993,0.882289983,0.5,4.714661782,0.017042511,0.011613359,725.1822689,17.34602084,19.51128918,3.874407119,0.402503409,1600808.139,891.629982,216.5683744,90.69875911,87.30347623,0.186017961,0.540716716,0.342230287,1.206027035,2.550049523,1.041787506,0.110218569,0.724448311,0.128990055,5.943276588,0.02883968,0.419619951,0.023840501,39.3549753,-0.052313372,0.124531546,0.080434595,6.172686398,-26.27040391,27.01762782,80.29427639,0.942403628,0.586377249,7.882903742,5.783141435,38.10205737,6.173210437,-0.237821016,3.665107993,5.954275936,1600558.138,1.3671875,32.00393072,2.532314152,0.045486507,0.169635882,1.004992455,1.712485691,1.470120656,0.015508106,38.10205737,3.57e-05,1.933333333,1.066666667,3,2,15.540890566333966,4.822511952436296,0.2479042407254237,1.0421428571428573,2.3560122308093967,0.13188284348091647,-0.016481423246514915
128.1360281,128.1360281,506.8864469,528.5714286,140.7070947,146.2304318,146.2198269,93,68,0.801724138,0.586206897,0.277590959,19798.4865,608.5714286,0.001231182,0.002503635,0.003734817,0.491757887,0.329649933,0.670350041,0.1875,4.422915366,0.008782353,0.008514298,768.7760608,18.033167,24.82052686,4.882776353,0.495747918,1472470.361,620.9403168,104.8459078,66.76653606,71.86436288,0.192084808,0.568133651,0.362456409,1.216931881,2.417846801,1.020063921,0.122498081,0.717569849,0.140406587,5.572378169,0.027785229,0.419443898,0.021326076,48.58934738,-0.057125004,0.126585434,-0.011180259,5.922553956,-26.25095607,27.05209604,85.62908313,0.929516129,0.675718618,7.270140209,5.581568025,35.07664536,5.922564508,-0.321251256,4.963717843,5.130369605,1473224.355,1.3671875,30.7344155,2.376745819,0.039621726,0.156061539,1.00290603,1.708829753,1.499557053,0.016023872,35.07664536,9.51e-06,1.966666667,1.05,3,2,15.540890566333966,4.822511952436296,0.2479042407254237,1.0421428571428573,2.3560122308093967,0.13188284348091647,-0.016481423246514915
135.2741812,135.2741812,477.4971429,491.4285714,125.9287335,144.0309495,144.0300976,91,72,0.733870968,0.580645161,0.263726674,15858.04591,480.0,0.000620939,0.002576253,0.003197193,0.241024112,0.194213883,0.805786086,0.3125,4.580796312,0.007047193,0.005512366,797.590808,20.60671065,27.28251051,5.239980586,0.649454171,1259822.865,310.2784032,177.0404259,99.38987906,74.82390036,0.203091481,0.583852133,0.377596489,1.230085093,2.722145082,1.007278159,0.130787782,0.725866278,0.147865463,5.317732529,0.026696537,0.421754949,0.024038808,47.51124201,-0.061235964,0.128522817,0.072749004,5.470960013,-26.2194745,27.05209604,85.89829991,0.93498829,0.633723331,7.064074502,5.573795277,29.93140346,5.471443674,-0.630167793,5.450593878,4.681224968,1257341.227,0.68359375,25.74658025,2.424374415,0.037147367,0.172084067,1.003260252,1.641317261,1.489520492,0.016518114,29.93140346,2.48e-05,2.1,1.033333333,3,2,15.540890566333966,4.822511952436296,0.2479042407254237,1.0421428571428573,2.3560122308093967,0.13188284348091647,-0.016481423246514915
135.5388562,135.5388562,477.6114286,484.2857143,127.4605695,140.8475006,140.8094925,91,71,0.733870968,0.572580645,0.266870853,16246.19677,444.2857143,0.000709971,0.001289,0.001998971,0.550792082,0.355168232,0.644831718,0.5625,4.679560844,0.007083137,0.005042324,790.7066103,23.68689312,27.27968486,5.068043211,0.653686874,1872398.464,645.7116214,195.5731577,127.452904,66.49069022,0.20868769,0.587439832,0.375281964,1.226801023,2.654496061,1.00209794,0.13313471,0.725334958,0.149514284,5.173204312,0.024764955,0.421869204,0.02055416,54.25758832,-0.060689684,0.128388933,0.491194486,6.658933671,-26.2540076,27.00848051,80.00514625,1.243244048,1.40889143,10.51261683,6.501411522,44.34139763,6.677025509,-0.3535826,3.223071404,5.299693952,1872472.125,0.68359375,37.4351191,2.175919283,0.035183642,0.151494698,1.003336844,1.714184082,1.518492326,0.016483718,44.34139763,3.26e-05,2.1,0.816666667,3,2,15.540890566333966,4.822511952436296,0.2479042407254237,1.0421428571428573,2.3560122308093967,0.13188284348091647,-0.016481423246514915
131.9890513,131.9890513,498.25,497.8571429,148.0660432,153.1855198,153.1852709,98,84,0.823529412,0.705882353,0.297172189,21923.55315,528.5714286,0.002526577,0.004248757,0.006775334,0.594662628,0.372908111,0.627091874,0.0625,4.475952749,0.010639488,0.010248342,760.3979176,22.26747343,24.76581815,4.861658073,0.594900124,2499656.168,728.7112067,170.5962041,164.4136311,80.12551624,0.217937495,0.583534753,0.364550939,1.226026762,2.763196482,1.00079594,0.13445549,0.729840596,0.147980963,5.354347654,0.025321678,0.420658,0.020907199,50.09980564,-0.060581252,0.12515673,0.042984776,7.715859321,-26.25549572,27.05288441,82.95675311,1.180228571,1.319578268,11.94541859,7.605421514,59.53448506,7.715979053,-0.202157697,1.987359104,6.288555256,2500525.975,1.3671875,53.77221074,2.233739317,0.038294201,0.153664579,1.003858307,1.770139018,1.495028189,0.015664207,59.53448506,2.09e-05,2.016666667,0.85,3,2,15.540890566333966,4.822511952436296,0.2479042407254237,1.0421428571428573,2.3560122308093967,0.13188284348091647,-0.016481423246514915
130.5175732,130.5175732,514.4968944,498.5714286,171.353632,205.6272877,205.610287,107,99,0.938596491,0.868421053,0.333050858,29362.0672,657.1428571,0.001937006,0.009075147,0.011012153,0.213440784,0.175897157,0.824102834,0.3125,4.514436227,0.016156357,0.015276108,734.9127624,20.27669703,20.49339556,4.203280581,0.517504407,1675253.343,572.021036,145.2260609,111.0532738,51.27763338,0.210741335,0.561145194,0.345995822,1.222412818,2.710920141,1.005355475,0.130460221,0.73640888,0.139147532,5.610728422,0.026879224,0.422452649,0.021983348,46.76201422,-0.058705935,0.123005556,-0.145992856,6.30691105,-26.25549572,27.05288441,82.21743476,1.106469003,1.215142764,8.757839339,6.524293114,39.777127,6.308600551,-0.24593733,3.148630289,5.509364904,1671534.518,0.68359375,37.18095578,2.304092958,0.040651124,0.159809179,1.004078716,1.662578318,1.473619293,0.015130367,39.777127,1.24e-05,1.933333333,0.9,3,2,15.540890566333966,4.822511952436296,0.2479042407254237,1.0421428571428573,2.3560122308093967,0.13188284348091647,-0.016481423246514915
124.3680222,124.3680222,540.4025974,544.2857143,175.3151556,210.8550633,210.8545643,101,92,0.926605505,0.844036697,0.324415827,30735.40378,654.2857143,0.00198497,0.002209181,0.004194151,0.898509198,0.473270922,0.526729054,0.5,4.425266741,0.014596405,0.015143929,701.1714848,19.08116997,18.9687727,3.558932989,0.441343565,1287868.269,294.5697681,95.43867115,53.9069978,49.48618748,0.19849166,0.54661838,0.336005895,1.212509515,2.548141248,1.000967745,0.122214044,0.736604941,0.133508888,5.640122842,0.029550389,0.424041186,0.01887447,56.31609029,-0.055491078,0.120646234,0.012283158,5.534805711,-25.16373318,24.04451586,77.52399631,1.06002551,1.022334424,7.446902062,4.633520885,30.63407425,5.53481934,-0.276674543,2.157768026,5.482135162,1286637.455,0.68359375,26.77069318,2.120267385,0.037047219,0.141609591,1.002442742,1.673231131,1.533836868,0.014555514,30.63407425,8.71e-06,1.85,0.95,3,2,15.540890566333966,4.822511952436296,0.2479042407254237,1.0421428571428573,2.3560122308093967,0.13188284348091647,-0.016481423246514915
